nni_counter,nni_mean,nni_min,nni_max,hr_mean,hr_min,hr_max,hr_std,nni_diff_mean,nni_diff_min,nni_diff_max,sdnn,sdnn_index,sdann,rmssd,sdsd,nn50,pnn50,nn20,pnn20,nni_histogram,tinn_n,tinn_m,tinn,tri_index,abs_energy,autocorr,mean,median,std,entropy,interq_range,mean_abs_dev,mean_abs_diff,mean_diff,median_abs_dev,median_abs_diff,median_diff,kurtosis,skewness,slope,sd1,sd2,total_power,vlf,lf,hf,lf_hf,lfnu,hfnu,bw,spec_ent,spec_decr, spec_dist,spec_kurt, spec_roll_95,spec_skew,spec_var,spec_centroid,energy,fundamental_freq,med_freq,auc,human_energy,ID,session

501,599.370998003992,519.55,1017.6,100.53394388406191,58.9622641509434,115.48455394091042,6.155631406937819,17.1137,0,347,42.62507615244805,23.405671862428072,3.2699304567833476,28.880744793027763,23.287406440121554,23,4.6,135,27.0,Figure(432x432),539.0625,664.0625,125.0,9.10909090909091,180890490.7759,180890490.7759,599.370998003992,591.82,42.582514907533294,0.6571211808220847,39.059999999999945,27.85203357755546,17.1137,0.14453999999999972,19.52999999999986,11.719999999999914,0.0,22.40719410393671,3.2749052838860258,0.001423895794069689,20.441966931247993,56.70908412226171,938.7556536487675,78.77394381144973,282.14178865957643,577.8399211777413,0.48826981023485,32.807882473796916,67.19211752620308,0.25020850708924103,0.5869386287327529,-13.135404174195802,-1278580880.8402078,41.9309146878664,0.6210350584307179,5.699896770478947,0.9147093158753775,0.13189014685994307,2917336.433313428,0.00667779632721202,0.0,180411.23672672745,1.8685487109210753e-05,10,1

505,593.2002772277228,498.06,1017.6,101.69863133880469,58.9622641509434,120.46741356463076,7.158323167959052,15.792083333333332,0,347,46.7949323577611,nan,nan,28.30762328966393,23.516566924310332,25,4.9603174603174605,122,24.206349206349206,Figure(432x432),507.8125,656.25,148.4375,10.306122448979592,178806359.206,178806359.206,593.2002772277228,587.9100000000001,46.74857778238414,0.6812075923713541,44.929999999999836,31.296547240466627,15.792083333333332,-0.18990079365079396,21.49000000000001,9.759999999999991,-1.9500000000000455,16.163524692130515,2.504627977907913,-0.09504362175347868,20.035948777994843,63.07211860481967,1053.0228290444115,173.06760769623025,304.65330137601836,575.3019199721629,0.5295537713323808,34.62145504509404,65.37854495490595,0.26744671959882993,0.5663560080800504,-12.338237852700624,-1283027329.6116662,37.0447795892488,0.6627615062761506,5.424677257631961,0.7676797606829943,0.14189501628058404,2867414.034489312,0.0066945606694560665,0.0,178382.4496209913,1.9992338847976964e-05,10,1

511,586.6976320939334,498.06,1189.5,102.96885128150701,50.441361916771754,120.46741356463076,7.626672845558903,17.766431372549015,0,619,56.648731969866645,nan,nan,56.779941359465255,53.98175099313715,21,4.117647058823529,96,18.823529411764707,Figure(432x432),515.625,656.25,140.625,9.641509433962264,177530041.1841,177530041.18409997,586.6976320939334,580.0999999999999,56.59327553761131,0.6769698689028433,42.97000000000003,32.17395981173478,17.766431372549015,-0.06509803921568615,21.489999999999895,7.810000000000002,-1.9499999999999318,45.22572438693234,5.180010906325137,-0.06824951256187348,40.188875374602624,69.3037658696282,1134.487734720749,278.8345881813383,266.3804558513515,589.2726906880592,0.45204955203390573,31.131826830614273,68.86817316938574,0.27736006683375103,0.6144924825435908,-8.572830027245132,-1431852289.8611312,25.032420666443564,1.0267558528428093,4.237221446659502,0.6605372838324985,0.20761719689736746,2820601.560954567,0.0033444816053511705,0.0,176734.89080508097,0.00012894734487049473,10,1

511,585.9790215264188,498.06,1287.1999999999998,103.1834809709431,46.612802983219396,120.46741356463076,7.790777923791981,19.80403921568627,0,705,63.208848336766266,nan,nan,70.85177208405572,68.09453378497682,21,4.117647058823529,85,16.666666666666664,Figure(432x432),507.8125,656.25,148.4375,10.428571428571429,177500425.22399998,177500425.22399998,585.9790215264188,578.14,63.1469698605174,0.6739514187180949,45.89999999999998,32.547062626138846,19.80403921568627,0.11105882352941152,23.42999999999995,7.809999999999974,0.0,57.829865403659724,6.327699011514276,-0.03611506057902654,50.148896661576835,73.99868363523183,1470.7977349143398,373.7000400373011,467.3618814533493,629.7358134236894,0.7421554745512082,42.59984171288689,57.4001582871131,0.48180677540777916,0.6298032996109033,-7.400850246316657,-1517780663.1455102,23.298525297685256,1.0418760469011725,4.011973469161773,0.7133218815282085,0.22551122632295295,2825545.6798538934,0.006700167504187605,0.0033500837520938024,176455.74265069212,0.00016572312885359614,10,1

509,589.463438113949,498.06,1287.1999999999998,102.62304316232573,46.612802983219396,120.46741356463076,8.075886828757024,20.39728346456693,0,705,64.70827030171311,37.91183867524505,1.6552005643944105,71.10663840179163,68.18545983305624,21,4.133858267716536,94,18.503937007874015,Figure(432x432),507.8125,656.25,148.4375,10.387755102040817,178987854.1451,178987854.1451,589.463438113949,582.05,64.64467493470103,0.6828526602204134,46.879999999999995,34.656569953026285,20.39728346456693,0.019212598425196833,23.440000000000055,7.810000000000059,0.0,51.47335537097639,5.850802068042251,0.0659182132454181,50.32954572284247,76.42811863582305,1365.2523602502538,530.8527729745903,423.36397229894465,411.035614976719,1.0299934041553163,50.73875619728422,49.261243802715796,0.5609348914858097,0.6200056817005238,-7.394984479054406,-1537029185.386326,23.519008245694376,1.035923141186299,4.027578051177887,0.6419558342689131,0.2231161449047092,2862891.561619002,0.003341687552213868,0.003341687552213868,177961.63282268483,0.00016130454700678356,10,1

505,594.4844554455447,498.06,1287.1999999999998,101.8096365020084,46.612802983219396,120.46741356463076,8.341043489104983,22.779841269841263,0,705,66.90694134207956,33.486333733817304,5.02726264620376,77.38266068187593,74.02721173669546,28,5.555555555555555,111,22.023809523809522,Figure(432x432),507.8125,671.875,164.0625,11.222222222222221,180729118.2771,180729118.2771,594.4844554455447,587.9100000000001,66.84066401888627,0.6975928560875096,50.77999999999997,36.96131908636409,22.779841269841263,0.0,25.3900000000001,9.759999999999991,0.0,48.81110102270965,5.6340384696778525,0.15218558346517944,54.77216856310663,77.15625153154852,1418.2788584599816,640.290763162246,310.4388238721999,467.5492714255357,0.6639702868655672,39.902773030658665,60.097226969341335,0.557363370880267,0.6245803345362595,-7.284414949933721,-1548579218.5729978,21.864714208585244,1.0726817042606516,3.9013819853046123,0.6344274627033005,0.2391698325223371,2911534.763407705,0.003341687552213868,0.003341687552213868,179545.85861638476,0.00017642515876688345,10,1

463,649.0229125411348,343.75,1269.5,93.02959394456214,47.262701851122486,174.54545454545453,7.5253231595808865,25.75406926406926,0,642,53.88161763272752,29.032837009035084,23.24796978671455,53.1758423851015,46.57352398622668,42,9.090909090909092,190,41.125541125541126,Figure(432x432),570.3125,726.5625,156.25,9.645833333333334,196371124.75261214,196371124.75261217,649.0229125411348,640.63,53.823398687975946,0.7058063804781988,54.690000000000055,36.32758295386855,25.75406926406926,0.0,27.34999999999991,17.579999999999927,1.9599999999999227,38.80812421649296,3.0877168849613152,-0.0648808690093774,37.64175864801921,66.25372022251412,1359.960283323407,238.2945868175398,213.23820227879781,908.4274942270694,0.2347333206380223,19.01085171304268,80.9891482869573,0.4866666666666667,0.6068119743470953,-10.41108930022322,-1467743850.874464,25.649773151176937,0.9741451209341118,4.279671377652189,0.5798449277419169,0.19616243608459266,3428447.2578325476,0.003336113427856547,0.0,195660.16199374525,8.828952353224842e-05,10,2

465,647.0086204441836,343.75,1269.5,93.29622494090431,47.262701851122486,174.54545454545453,7.380542148591075,24.09002155172414,0,570,52.904975777724395,28.575314783577124,12.164082302009811,43.8409390796449,36.668741982863324,41,8.836206896551724,187,40.30172413793103,Figure(432x432),578.125,710.9375,132.8125,8.61111111111111,195957078.56041217,195957078.56041214,647.0086204441836,638.67,52.848058089618256,0.7024384715685287,52.729999999999905,34.718273850644756,24.09002155172414,-1.3848060344827586,25.389999999999873,15.63000000000011,0.0,42.23882177362248,3.3299428692805417,-0.15480112761033732,31.018199157970226,68.08629998083099,787.5641385798162,166.75809709355082,287.20780250584676,333.5982389804187,0.8609392045462957,46.263693217006306,53.736306782993694,0.4962531223980017,0.6460479792073012,-8.389604841411114,-1412391972.8038576,8.534959553572925,2.606666666666667,2.4786071506875778,0.6035654240949808,0.4214235671621078,3398180.724926276,0.0033333333333333335,0.0,194970.65739877784,0.00017394219913269954,10,2

471,637.0872155128352,343.75,1228.5,94.69414460218589,48.84004884004884,174.54545454545453,7.138790901834265,23.192319148936168,0,667,49.3546800188858,28.123814770516393,34.17460389129567,51.73283802331141,46.292141415323066,32,6.808510638297872,164,34.8936170212766,Figure(432x432),578.125,703.125,125.0,7.983050847457627,192314402.28671217,192314402.28671214,637.0872155128352,632.81,49.30225867640474,0.688634745435245,50.77999999999997,32.13803137512997,23.192319148936168,-0.14542553191489366,23.440000000000055,14.649999999999977,0.0,45.04895407680539,3.367460173114619,-0.07732784912846462,36.619473672730464,59.420392353681166,764.6412357083913,29.57700992583837,274.7324143176571,460.3318114648958,0.5968138796304061,37.37529384254494,62.624706157455066,0.5242070116861436,0.6522561396347119,-10.48685498925566,-1423041613.5438557,23.817489493444334,1.0225563909774436,4.11201119769985,0.7478624987913969,0.20654826639400942,3294676.0835693358,0.003341687552213868,0.0,191577.0014544956,0.00010120207878795805,10,2

471,636.7158174097665,439.45,1228.5,94.6723593112934,48.84004884004884,136.5343042439413,6.186750485160059,23.429319148936163,0,667,47.260132221303614,nan,nan,53.14672931631142,47.75451765057052,27,5.74468085106383,171,36.38297872340426,Figure(432x432),570.3125,710.9375,140.625,8.263157894736842,191996466.5837,191996466.5837,636.7158174097665,632.81,47.20993557174728,0.6860117993155543,48.82000000000005,31.07153979652093,23.429319148936163,0.08310638297872353,23.42999999999995,14.649999999999977,0.0,51.595983861368055,4.253076031618746,0.02997675836834328,37.62040977482116,55.24260098442814,917.0058338695394,49.44100208417848,396.77827097162134,470.7865608137396,0.8427986353004697,45.734711278590176,54.26528872140983,0.5614035087719298,0.6608928579446661,-10.75886108459156,-1405929398.5531774,24.094267151383637,0.9933110367892977,4.097747943997717,0.7514430792618891,0.20393802525350915,3284986.479710081,0.0033444816053511705,0.0,191176.51119661564,0.00012059163382790009,10,2

470,637.4887021276595,439.45,1228.5,94.56031996123953,48.84004884004884,136.5343042439413,6.202187052587793,23.449978678038374,0,667,47.426541526544796,nan,nan,53.06914459353124,47.657899792231525,26,5.543710021321962,174,37.10021321961621,Figure(432x432),562.5,703.125,140.625,8.867924528301886,192059078.14850003,192059078.14850003,637.4887021276595,632.81,47.376060893264814,0.6911983229008618,46.870000000000005,30.968793390674506,23.449978678038374,-0.06247334754797456,23.42999999999995,15.620000000000005,0.0,50.72495349151314,4.204657816241114,0.0802152879533948,37.565595992565065,55.564194226691846,1005.5171265154645,38.51940432005777,480.12766527025366,486.8700569251531,0.9861515581847828,49.65137499809245,50.34862500190756,0.5917258671124113,0.6562247111868869,-10.834107286977263,-1401470117.2543764,23.417819068199595,0.9941422594142258,4.053615651139597,0.7167909564776084,0.2042833031721848,3293713.5675376635,0.0033472803347280333,0.0,191347.86171087454,0.0001198203041703908,10,2

469,640.1222601279318,439.45,1228.5,94.11113810976661,48.84004884004884,136.5343042439413,5.71246079157492,22.703205128205123,0,667,44.62123386402009,31.31056974019191,14.158317490454296,51.026131431736914,45.74606159648635,20,4.273504273504273,175,37.39316239316239,Figure(432x432),570.3125,703.125,132.8125,8.228070175438596,193107615.72180003,193107615.7218,640.1222601279318,636.7199999999999,44.57363786768616,0.6774465190738697,44.91999999999996,28.465931142338874,22.703205128205123,0.08346153846153835,21.480000000000132,15.629999999999995,0.0,63.88115011289213,4.904347041475792,0.03628634242860942,36.119485117190564,51.74448587013109,1151.5036478266834,66.85855346355592,520.0510297498994,564.5940646132282,0.9211060872667113,47.946653928791186,52.053346071208814,0.6441385064664163,0.6653201372429112,-11.386954077546642,-1387203933.8874638,24.9061239237127,0.9757727652464494,4.188015755210962,0.7334565051171617,0.19925749997509476,3315531.0634542317,0.003341687552213868,0.0,192360.522042175,9.97578709594499e-05,10,2

463,646.9790280777537,439.45,1228.5,93.13139532000915,48.84004884004884,136.5343042439413,5.837697007067763,24.105670995670994,0,667,45.638515766265826,nan,nan,51.88156050415524,45.99120875019126,23,4.978354978354979,194,41.99134199134199,Figure(432x432),578.125,726.5625,148.4375,9.645833333333334,194765690.3077,194765690.30769998,646.9790280777537,642.58,45.58920347118866,0.6879190585479437,49.80499999999995,29.9945275669523,24.105670995670994,0.21138528138528132,23.440000000000055,17.579999999999927,1.9499999999999318,56.290558559859534,4.388096150902263,0.04064870864965841,36.72526623683481,53.07544688958341,504.3591583424087,90.34815766153834,204.29088934738064,209.7201113334897,0.9741120584402336,49.34431428426052,50.65568571573947,0.5286491007946466,0.6727380303667719,-11.122725337811893,-1399649565.7455134,23.181775567559015,1.035175879396985,4.09111511582548,0.9353491199423859,0.21067139841872579,3387043.459805402,0.006700167504187605,0.0,193929.58074527286,0.00010057468787518024,10,2

459,654.0936819172114,439.45,796.88,92.00189189185119,75.29364521634375,136.5343042439413,5.110299134818378,23.454890829694325,0,357,35.24762339554607,32.8352001820524,16.72026547475227,34.29603178810964,25.04906951546012,30,6.550218340611353,215,46.943231441048034,Figure(432x432),593.75,734.375,140.625,8.826923076923077,196946908.91772813,196946908.91772813,654.0936819172114,650.39,35.20920635590671,0.6841265172588856,50.780000000000086,28.107774122963153,23.454890829694325,0.1620524017467247,23.43999999999994,19.529999999999973,1.954999999999984,2.5293676560579375,-0.05975899687504478,0.03123696905507283,24.277203903069132,43.5362754575687,449.25859301460184,58.80795973063002,166.82471210959682,223.625921174375,0.7459989934687099,42.72619836891556,57.27380163108445,0.3537755527743012,0.6488554934446145,-15.543429716209884,-1287665591.7259016,29.721645748154927,0.8955722639933166,4.670431074318201,0.6943098073845017,0.16596570822857618,3448358.1517351163,0.003341687552213868,0.0,196358.02067454663,4.796758257914681e-05,10,2

458,657.3252328483286,525.39,1271.5,91.65726973106507,47.1883602044829,114.20087934677098,5.526330637943406,26.562013129102844,0,611,46.94833952971042,26.290108109561984,0.7636391069971831,52.09776893669287,44.86693540217583,38,8.315098468271334,216,47.26477024070022,Figure(432x432),585.9375,742.1875,156.25,9.16,198898314.46567294,198898314.4656729,657.3252328483286,650.5353492942763,46.897057876470555,0.6917802357734515,50.780000000000086,31.426995778359423,26.562013129102844,-0.029934354485776696,25.244650705723757,19.529999999999973,1.9500000000000455,62.534804443538206,5.064347702323894,0.07793006584450442,36.879050786676686,55.210766905266425,394.2701668022181,51.950049423892246,130.1752686886873,212.14484868963854,0.6136150346932523,38.02734986352556,61.97265013647445,0.36938435940099834,0.6514004943629518,-11.733039695792542,-1440015871.5027208,30.908005569559112,0.8159866777685263,4.680718100088402,0.6921968767638484,0.1696776801454761,3498724.765814854,0.0033305578684429643,0.0,198140.53761023917,5.906948498845235e-05,10,2

458,658.7667612326081,525.39,1271.5,91.46059671615082,47.1883602044829,114.20087934677098,5.559571578394917,27.01507658643326,0,611,47.138492919519926,25.54077576383409,29.593050751135824,52.43013795136327,44.98369554045107,43,9.409190371991247,220,48.14004376367615,Figure(432x432),593.75,742.1875,148.4375,8.980392156862745,199775400.87707296,199775400.87707293,658.7667612326081,653.325,47.087003561805396,0.695027303521845,54.192499999999995,31.955588897181137,27.01507658643326,-0.004266958424507509,26.375,19.530000000000086,1.9600000000000364,60.8900937332613,4.933428537398318,0.05278277812295015,37.1143346922333,55.37690122966568,680.5007159330579,44.424757356037674,202.205201324728,433.8707572522922,0.46604938900537,31.789473976832234,68.21052602316777,0.49813200498132004,0.6563301919025625,-11.681793493896738,-1452206522.4435515,31.06527317511994,0.8113050706566917,4.677936200305962,0.7027634342487973,0.16866029476207484,3514838.5837265835,0.0033250207813798837,0.0,199017.83745197393,6.0541351341416364e-05,10,2

456,660.649488255558,525.39,1271.5,91.19308066960099,47.1883602044829,114.20087934677098,5.503316423399605,27.292615384615388,0,611,46.795876981670936,27.5872057646799,5.8980285058675115,52.5935280307615,45.00715833829288,43,9.45054945054945,225,49.45054945054945,Figure(432x432),601.5625,750.0,148.4375,9.5,200021115.94417292,200021115.94417292,660.649488255558,658.2,46.74453755098478,0.6966561261922622,52.74000000000001,31.283368324900163,27.292615384615388,-2.498611818057495e-16,27.340000000000032,19.530000000000086,3.8999999999999773,62.24862088440368,4.968939273716664,-0.047639886142343144,37.230175101418844,54.71400430314941,845.9766038778687,38.136070656355535,305.46112841071823,502.3794048107949,0.6080287636905823,37.81205768329027,62.18794231670972,0.508939708939709,0.6547777309250956,-11.870296376117631,-1441027676.0815363,30.849081732177318,0.8159866777685263,4.677321332006244,0.7522643231668585,0.17016097321769436,3533003.7973790825,0.0033305578684429643,0.0,199206.73440261328,5.9226700312692946e-05,10,2

457,659.1054631171432,525.39,1271.5,91.43665036046478,47.1883602044829,114.20087934677098,5.731127970796473,27.172807017543857,0,611,48.40605417877073,29.780906982069624,0.7453967772896906,52.85096707730142,45.380386323012175,49,10.74561403508772,213,46.71052631578947,Figure(432x432),601.5625,726.5625,125.0,7.745762711864407,199598419.87347293,199598419.87347293,659.1054631171432,654.3,48.353064503140146,0.7013364554940796,56.639999999999986,32.69537711874917,27.172807017543857,-0.07710526315789491,27.34999999999991,19.529999999999916,1.9599999999999227,54.72182666041872,4.626582333638684,-0.05876203801342933,37.412282195481964,57.32899182125742,814.1648722252928,27.769207601003416,248.27590248074245,538.119762143547,0.4613766673272877,31.57137223020672,68.4286277697933,0.45571725571725574,0.6514967359585724,-11.350335797730809,-1457813095.181221,29.88640021391358,0.835970024979184,4.649015795030574,0.7456965433606706,0.1775592767103098,3519967.550157825,0.0033305578684429643,0.0,198794.74219577195,6.137017556842345e-05,10,2

456,662.0377097827242,525.39,1271.5,91.08881930417024,47.1883602044829,114.20087934677098,6.112222855547496,26.725978021978023,0,611,51.58770316333468,43.427979279107284,13.389504997222671,52.747470602920565,45.525518766503296,44,9.670329670329672,210,46.15384615384615,Figure(432x432),601.5625,726.5625,125.0,8.290909090909091,201072919.1620447,201072919.1620447,662.0377097827242,656.25,51.53110665352145,0.709255923532112,56.639999999999986,35.19776275944373,26.725978021978023,-0.13736263736263737,29.299999999999955,17.58000000000004,1.9599999999999227,41.59088252801564,3.956144046859209,0.008258826759050254,37.33902214492039,62.67678725491445,612.9320151615706,82.65440182357182,197.23677235376655,333.0408409842322,0.5922299852801077,37.19500265383594,62.80499734616405,0.32185815014516794,0.6152716046708719,-11.235317377440976,-1478306873.3540359,29.353168370588882,0.8438538205980066,4.617042292934982,0.6843077901022299,0.17809506184236312,3559571.597947347,0.0033222591362126247,0.0,200341.25158810307,6.053282060460144e-05,10,2

458,657.1539558744195,568.36,810.55,91.7082628473938,74.02381099253594,105.56689422197199,5.997359702528002,21.860765864332603,0,87,44.70353095214363,30.6828215407346,6.296736589828169,28.185888861441136,17.81138506868289,37,8.096280087527353,197,43.10722100656455,Figure(432x432),585.9375,718.75,132.8125,8.641509433962264,198701176.74397284,198701176.7439728,657.1539558744195,652.34,44.65470130245103,0.7100418257928929,56.639999999999986,34.7802128732619,21.860765864332603,-0.10684901531728674,27.340000000000032,17.579999999999927,1.9599999999999227,0.48179766511734856,0.7758137744154857,0.022172209399655817,19.952131360344094,59.98936416864328,926.5723119248646,42.62543667405611,334.6891277565431,549.2577474942653,0.6093480324736567,37.86303647055479,62.1369635294452,0.2929671244277986,0.5475316211826945,-15.65682145771574,-1339544576.3853788,51.55750825965284,0.51,6.289364906150606,0.7748978888960913,0.1086938636098505,3500247.0741789974,0.0033333333333333335,0.0,198117.7749112297,1.087746251997462e-05,10,2

446,677.7847722053189,470.55,1298.4,89.56475640404005,46.210720887245834,127.51036021676761,9.064077996671434,38.55426966292135,0,665,82.36068352901982,63.23792522862129,21.746039745372094,90.54407303987053,82.01776706506494,70,15.730337078651685,217,48.764044943820224,Figure(432x432),531.25,773.4375,242.1875,16.51851851851852,207907480.63046193,207907480.63046193,677.7847722053189,675.5600000000001,82.26829911011843,0.7781322837719541,80.09976223132696,51.84374354787574,38.55426966292135,0.004382022471910214,39.049999999999955,19.529999999999973,0.0,23.709482774432743,3.43783130990535,0.22762589143241693,64.09638688529992,97.25336791589618,2446.062715271623,250.15139821583136,1033.7442207660838,1162.1670962897078,0.8894970646358668,47.07586379909437,52.924136200905636,0.48715824357912174,0.5970300669503076,-7.2941701203281815,-1811176961.9263833,24.142477578296603,0.978441127694859,4.1068332887365395,0.5522503433896919,0.2228830212488107,3803879.1299769427,0.003316749585406302,0.003316749585406302,206560.76484967914,0.00015415844762984524,10,3

434,694.8339133722861,511.54999999999995,1298.4,87.07935776657946,46.210720887245834,117.29058743035873,7.176613737444445,39.38385681293303,0,665,74.09401425408727,44.348148040613935,20.212532612123738,89.80465170753544,80.80139542218036,68,15.704387990762125,249,57.505773672055426,Figure(432x432),578.125,773.4375,195.3125,12.4,211909805.18936193,211909805.18936193,694.8339133722861,687.2700000000001,74.00860325825741,0.752155521916679,61.99054447495155,43.07338415585236,39.38385681293303,0.09919168591223977,31.24000000000001,23.430000000000064,0.0,33.7311277348809,4.56551181800058,0.04794144811004189,63.574894021773396,83.29513039001773,1864.5383006004804,169.1756448905799,1026.8091300959445,668.5535256139559,1.535866749267368,60.56575132392473,39.43424867607527,0.49169435215946844,0.6515209190865116,-7.922938783903383,-1776186929.121056,25.11266865510617,0.9609310058187864,4.207334283829135,0.7581643913983158,0.21599501092808177,3960721.4892934267,0.0033250207813798837,0.0,210593.41621841546,0.0001271547405278154,10,3

429,699.6020263160225,581.84,1298.4,86.3576067107068,46.210720887245834,103.12113295751409,6.286659205654722,38.283738317757006,0,665,69.37430351297164,43.6923570544459,31.548592182490747,88.24120067827427,79.59690848144486,61,14.252336448598129,256,59.813084112149525,Figure(432x432),609.375,757.8125,148.4375,9.75,212030920.77855837,212030920.77855837,699.6020263160225,691.1800000000001,69.29340050759131,0.7201824199316919,51.06598855383504,37.55332007346377,38.283738317757006,-0.07299065420560803,25.38000000000011,25.379999999999995,1.9499999999999886,43.36810676607502,5.48382978150366,-0.0595380327606144,62.46895045648752,75.65195440095863,1345.3771547426395,76.38710389317637,938.4507930883028,330.53925776116034,2.8391507848257,73.9525729504422,26.047427049557797,0.49749582637729545,0.6497813638012168,-8.47927461326086,-1709223440.0849123,24.751237206923754,0.9690893901420217,4.191450824954749,0.7869519359270654,0.2182609749038391,3998599.166018806,0.003341687552213868,0.0,210684.78750262098,0.00011408760735985636,10,3

432,696.0693563833199,616.98,1431.2,86.87744867186747,41.922861934041364,97.24788485850432,6.402030059308718,38.4338747099768,0,712,77.28029594460376,46.97430339852109,35.373694166085926,87.9717767432794,79.2239437817188,58,13.45707656612529,267,61.94895591647332,Figure(432x432),609.375,757.8125,148.4375,9.6,211883458.3479182,211883458.3479182,696.0693563833199,685.32,77.19079933560478,0.6988775622843106,48.87471861742233,36.69644985070038,38.4338747099768,-0.26273781902552235,25.379999999999995,25.379999999999995,7.809999999999945,47.02878290929064,6.15701014279037,-0.12487947359319959,62.27745203524179,89.8109528430093,730.2491501620038,154.74039411778847,334.29225647492154,241.21649956929386,1.3858598274654508,58.08638929713147,41.91361070286854,0.36984589754269054,0.6307172772260013,-7.394762535219305,-1846689501.8517754,27.696144793327576,0.8807339449541284,4.44207237478459,0.7491145241496205,0.19995180288448394,3995334.9366793428,0.003336113427856547,0.003336113427856547,210546.70290946795,0.00010701596080150192,10,3

439,683.7023006833714,601.36,810.28,87.9966107624266,74.04847706965494,99.77384594918185,4.58337088919317,26.675273972602742,0,99,35.83765605156277,21.995060700180815,47.29341638850384,32.09965908651242,17.875889692673475,43,9.817351598173515,258,58.9041095890411,Figure(432x432),609.375,757.8125,148.4375,9.145833333333334,205772578.8513,205772578.8513,683.7023006833714,681.4200000000001,35.796815404618364,0.6891370414344209,47.835000000000036,28.62743945911448,26.675273972602742,-0.1604794520547947,23.430000000000064,23.430000000000064,7.809999999999945,-0.07744061567420868,0.2629818375715983,-0.06873289231441308,22.72355791265405,45.302484460904395,537.3319209978682,120.52692411586924,264.9850142414737,151.81998264052524,1.745389570152285,63.57529689513133,36.42470310486867,0.39716312056737585,0.5785842480000891,-19.003427987612984,-1291105113.397832,39.47482133056845,0.6482873851294904,5.534998909629428,0.662950428814642,0.12802041190749752,3767314.165028497,0.003341687552213868,0.0,205244.02155171538,1.5871216893118026e-05,10,3

446,672.1265470852017,542.79,777.0899999999999,89.65193611596423,77.21113384550053,110.53998784060134,6.002124562285608,24.158404494382026,0,80,43.19347517003083,nan,nan,29.29391583492757,16.586839714903725,29,6.51685393258427,246,55.28089887640449,Figure(432x432),593.75,750.0,156.25,9.911111111111111,202312552.4546,202312552.4546,672.1265470852017,675.5600000000001,43.145024818079726,0.712683933919773,52.72000000000003,33.56308512135777,24.158404494382026,-0.017550561797752943,27.329999999999927,21.480000000000132,3.909999999999968,0.27025594125396024,-0.41275022295262676,-0.1400841903650178,20.737236186954853,57.45711122093235,509.1518785394592,64.97396757085164,294.49431255170475,149.68359841690275,1.9674454360154499,66.30098104372377,33.69901895627622,0.3943191311612364,0.504082513924175,-18.333042671974816,-1298607804.6951184,52.0346141963518,0.5016722408026756,6.2261765304592105,0.6163970863745909,0.10245101539463226,3655936.151541333,0.0033444816053511705,0.0,201807.654467009,1.2135650189912542e-05,10,3

455,659.7541758241757,542.79,777.0899999999999,91.3670579140065,77.21113384550053,110.53998784060134,6.314406108029164,22.50533039647577,0,80,44.58070029633618,23.636344125808506,51.062719400875686,27.968292218216046,16.62360252556962,25,5.506607929515418,222,48.89867841409692,Figure(432x432),554.6875,742.1875,187.5,11.666666666666666,198952682.72829998,198952682.7283,659.7541758241757,663.84,44.531683568708594,0.7208825525763968,62.48000000000002,36.04419176427968,22.50533039647577,-0.22792951541850223,29.289999999999964,19.529999999999973,1.9600000000000932,-0.34520041426520764,-0.16177507956497367,-0.15040975914880347,19.79772802464737,59.857561284148474,899.9664613658958,258.9650550385136,415.07499700934574,225.92640931803652,1.837213268967794,64.75414763713516,35.245852362864845,0.3571130579891531,0.5293859709506847,-15.942821027648755,-1311186530.0306935,36.760148023077626,0.6449456975772765,5.427745276751007,0.5825452993989173,0.13505896450551474,3527355.116787604,0.003341687552213868,0.0,198425.4692434691,1.3069579163317473e-05,10,3

358,852.003712362635,568.35,1207.0,71.23297770617384,49.71002485501243,105.56875164951174,7.672075063658187,49.44577030812325,0,638,91.32304346308095,95.6159737230995,39.36521388747864,74.02034913652982,55.16022766511693,124,34.73389355742297,261,73.10924369747899,Figure(432x432),656.25,1039.0625,382.8125,22.375,262853240.34638417,262853240.3463842,852.003712362635,851.5500000000001,91.19540811983728,0.8492861073641813,131.03074300841365,73.27116947887822,49.44577030812325,-0.6127170868347339,64.45000000000005,35.180000000000064,-5.860000000000014,0.18276214859084083,0.27678948255826186,-0.012743546333695996,52.41195518627841,118.03721230303216,5159.462119307367,163.17104093863765,426.2840325305805,4570.007045838149,0.09327863792218707,8.532009561575837,91.46799043842417,0.22012320328542095,0.5628008405863605,-9.791791061069977,-2064539902.2450628,28.337622605525574,0.875,4.745375745852749,0.793765385476542,0.18035383577702946,5982474.512226087,0.006578947368421052,0.0,261739.80843720876,3.0892224240768195e-05,11,1

360,844.2776746552917,677.72,1097.6,71.86348450834299,54.66472303206997,88.53213716579118,7.575108936525829,44.0292200557103,0,347,89.7321043174523,68.27044129047563,16.632830375952935,60.7130991002878,41.861551469370504,115,32.03342618384401,255,71.03064066852369,Figure(432x432),656.25,1015.625,359.375,21.176470588235293,259500339.43742514,259500339.43742517,844.2776746552917,838.855,89.60738972720715,0.8463757552110942,135.25750000000005,73.59197683830683,44.0292200557103,0.13601671309192212,67.38499999999999,35.14999999999998,-5.8599999999999,-0.42561281626697856,0.2993623095834942,-0.0603998797017377,42.99045338276104,119.39649077096416,6044.27708016367,242.3498623944569,464.02008233278866,5337.907135436424,0.08692921599409778,7.9976887836797115,92.0023112163203,0.21773195876288662,0.5444495777846666,-10.968776924309699,-2005225648.260038,54.67360848643702,0.495458298926507,6.412550204076421,0.869998806056642,0.11313546429336901,5880448.396428943,0.006606110652353427,0.0,258384.22956773953,1.4138559821072422e-05,11,1

364,830.1748890498865,593.74,1050.8,73.09572687414094,57.099352874000765,101.05433354667026,7.76416348957379,41.6232782369146,0,347,88.72839555572054,49.389862169545424,39.37694270931857,60.37746007138195,43.797542844451534,98,26.997245179063363,244,67.21763085399449,Figure(432x432),664.0625,1046.875,382.8125,22.75,253723086.42144772,253723086.4214477,830.1748890498865,822.25,88.60643206775296,0.841708926243135,141.11,75.05679274162996,41.6232782369146,0.5595867768595041,70.31000000000006,29.300000000000068,-7.810000000000059,-0.7264407417427807,0.25285288862649,-0.20118338809607192,42.75040322697149,117.97397755317128,3580.2451377324023,149.35348501742467,627.4901044028661,2803.4015483121116,0.2238316893206644,18.289417676781266,81.71058232321873,0.23890501866445457,0.5300813149067595,-10.40234330332496,-1932638888.969537,29.83382142240711,0.813953488372093,4.897952838554619,0.6821953069490949,0.1684779072637536,5687212.182267281,0.006644518272425249,0.0,252637.47420597088,2.6831065739694566e-05,11,1

366,819.9519218803497,593.74,1050.8,73.92989234693597,57.099352874000765,101.05433354667026,7.426951184366797,39.444706978235494,0,347,84.20692814375607,72.76773531721761,50.01924207967587,57.28926240456888,41.60428963926412,95,26.027397260273972,235,64.38356164383562,Figure(432x432),640.625,976.5625,335.9375,20.333333333333332,248657686.89827597,248657686.89827597,819.9519218803497,807.605,84.09181267210474,0.8335438372121736,124.3284291864885,69.21637327514193,39.444706978235494,0.034909460120670636,63.47499999999991,29.290000000000077,-3.909999999999968,-0.3251065950507477,0.4423606987763251,-0.15861076179005035,40.56522532944809,111.96461936159342,5923.556494734463,1233.8229408890475,889.9859408272922,3799.747613018123,0.2342223830283244,18.977324204219133,81.02267579578086,0.2237061769616027,0.5216944327216583,-11.509921009420728,-1859240295.866337,50.43864423790197,0.5680868838763575,6.091848102301441,0.585263715923747,0.11591181123275016,5538545.130850258,0.003341687552213868,0.0,247850.04647326458,2.038612514644377e-05,11,1

367,819.9386211900731,593.74,1050.8,73.78358250962344,57.099352874000765,101.05433354667026,6.662211722234121,37.914726775956275,0,347,75.5974229243625,49.630585377679836,11.545356635473064,53.19745486563345,37.36653060141121,89,24.316939890710383,238,65.02732240437157,Figure(432x432),671.875,937.5,265.625,16.681818181818183,248825537.85362828,248825537.85362828,819.9386211900731,812.49,75.49435890517256,0.8129165648342797,103.51999999999998,59.30998176280098,37.914726775956275,0.058715846994535546,50.77999999999997,30.25,-3.8999999999999773,0.2776828770719275,0.5081799502404061,-0.06849668662305419,37.667752039845055,100.05539046885285,3287.920561296327,1101.298715278321,220.72565035378184,1965.896195664224,0.11227736786946908,10.094367746107492,89.90563225389249,0.22990420658059144,0.5383642637504141,-12.34973505830331,-1816933943.3263426,51.33179787135439,0.5471226021684737,6.102227541532021,0.5763361771082565,0.11098006699554619,5504881.455510137,0.003336113427856547,0.0,247824.2128644758,1.91668483509154e-05,11,1

369,814.7427208042188,593.74,1035.1,74.06954343610278,57.96541396966477,101.05433354667026,5.670208747339969,36.41350543478261,0,347,61.955348361764614,57.22561817616521,13.703990786128088,49.544751985120286,33.64245315844937,93,25.271739130434785,240,65.21739130434783,Figure(432x432),687.5,929.6875,242.1875,14.76,246356858.89732826,246356858.8973283,814.7427208042188,812.49,61.8713410711095,0.7816918498310034,83.99000000000001,48.1592499221741,36.41350543478261,0.5148097826086955,41.01999999999998,31.224999999999966,-1.9500000000000455,0.7364708708673415,0.21774480901833276,0.1215780449922815,35.07923321596976,80.28933788638952,2620.030226467599,306.5515508436233,286.1189431661632,2027.3597324578122,0.14112884782381221,12.367477002527078,87.63252299747292,0.29345560650270947,0.5675201221246405,-13.2605502256121,-1697959838.0669274,28.267781099110834,0.8547579298831386,4.763354928190388,0.6268164920789365,0.1692506155584408,5392756.164120912,0.00333889816360601,0.0,245430.68678503123,2.4472689284578012e-05,11,1

366,822.441127568865,593.74,1005.8000000000001,73.32020159751471,59.65400676078743,101.05433354667026,5.293410430986156,37.95994520547945,0,275,57.492964358148754,30.73964304343327,57.49711999550906,47.78224599511788,29.060269940542465,108,29.589041095890412,251,68.76712328767123,Figure(432x432),710.9375,937.5,226.5625,14.076923076923077,248772329.39092997,248772329.39093,822.441127568865,822.25,57.41436833458377,0.7785413933789188,77.63999999999999,45.703592746836996,37.95994520547945,0.19265753424657547,39.059999999999945,33.200000000000045,0.0,0.3042980953327832,-0.19521079842837738,0.2351971072955805,33.83325423611246,73.93370550141054,1788.8597483376793,203.77150235646025,763.1644375651059,821.9238084161133,0.9285099540257393,48.14649528188781,51.853504718112184,0.3165347771761766,0.5677367923283515,-15.476746368286248,-1671466462.041533,46.2386351815489,0.5804837364470392,5.950195467166688,0.6083053304635608,0.11726806991330563,5478121.403481003,0.003336113427856547,0.0,247675.6154000675,1.6236279705885547e-05,11,1

378,801.0748029139494,687.65,970.9100000000001,75.19813781517777,61.79769494597851,87.25369010397732,4.722788413398432,31.665278514588863,0,115,50.996103205455164,44.37275736731121,13.701858614265507,40.08589530649199,24.612923945050536,78,20.689655172413794,222,58.88594164456234,Figure(432x432),671.875,890.625,218.75,13.5,243550904.62683675,243550904.62683675,801.0748029139494,797.04,50.928603370172034,0.7769210827965916,69.35249999999996,40.76491777144882,31.665278514588863,-0.08809018567639237,34.19587748344367,25.399999999999977,5.860000000000014,0.09353580316464427,0.3908611236271039,-0.04288819577999216,28.38260767065507,66.29956761621105,1828.2202443587694,192.2257152380746,1010.5392760465079,625.455253074187,1.6156859680681985,61.7691109633262,38.23088903667381,0.3276789408357468,0.5220583295520893,-17.852872362879864,-1589883146.689097,52.26118371683022,0.5236122618061309,6.290765985430258,0.7458675959311503,0.10261304641902798,5190775.114081467,0.006628003314001657,0.0,242774.00036809014,1.3160723954216615e-05,11,2

377,799.8843974900337,666.16,970.9100000000001,75.37391286254194,61.79769494597851,90.06845202353789,5.230911483542561,31.609361702127668,0,117,55.897050844436784,43.14911669466719,34.08702924316061,40.15320199038184,24.794412486528238,80,21.27659574468085,220,58.51063829787234,Figure(432x432),695.3125,937.5,242.1875,15.708333333333334,242385078.1944015,242385078.19440153,799.8843974900337,795.0899999999999,55.82286759895081,0.7847196495335633,76.18000000000006,44.89923746585269,31.609361702127668,0.0,37.12000000000012,25.399999999999977,2.5255218855218686,-0.16638507450529616,0.27906251173196683,-0.05868449129301787,28.430433011363768,73.76090471921734,2519.6052794733373,300.7739536928268,1170.3695988834154,1048.461726897095,1.1162730778424355,52.747118957846816,47.25288104215319,0.32917705735660846,0.49053033334752805,-17.158678393940377,-1596943714.8759277,54.96036249610453,0.4891846921797005,6.408005870404514,0.7378604537055198,0.09838641187658476,5186455.010931163,0.0033277870216306157,0.0,241464.70072060334,1.23695660795348e-05,11,2

376,801.8661292023808,666.16,970.9100000000001,75.19755065529891,61.79769494597851,90.06845202353789,5.303889053514936,31.287440000000004,0,117,56.62209845523305,36.47403871880164,64.62248007323659,39.78660961945035,24.61067989233483,80,21.333333333333336,220,58.666666666666664,Figure(432x432),687.5,929.6875,242.1875,15.04,242966245.98746824,242966245.98746824,801.8661292023808,799.0,56.54675298146464,0.7826068705945031,80.09000000000003,46.06318723080336,31.287440000000004,0.39592000000000005,39.95736926653433,25.399999999999977,5.8599999999999,-0.39682382618016554,0.1804015174697452,0.08309842034548581,28.169572989815553,74.95731601731525,1851.001195174171,295.8174892331972,948.6120212124754,606.5716847284984,1.5638910372762853,60.996782411535854,39.003217588464146,0.34594594594594597,0.5049368484220959,-15.800830392314136,-1600936157.038103,32.51124617409292,0.746044962531224,5.128605119327106,0.709048328854613,0.1449120685554618,5212916.9002749575,0.0033305578684429643,0.0,241972.71918080281,1.6069611659461763e-05,11,2

376,802.5805825192596,666.16,935.74,75.0897057556759,64.1203753179302,90.06845202353789,5.03549069737068,30.469786666666668,0,117,53.05525517509624,37.85846045339553,47.110514048932856,38.21884879907786,23.10185474216314,78,20.8,216,57.599999999999994,Figure(432x432),671.875,906.25,234.375,14.461538461538462,243250554.9184301,243250554.91843012,802.5805825192596,804.86,52.98465600187358,0.7869008263844595,74.23000000000002,42.84767776169699,30.469786666666668,0.026053333333333286,35.17000000000007,25.399999999999977,5.352690237364982,-0.4440198499123382,-0.06156766702588119,0.1178268342539832,27.060906170266758,69.98162302085578,1929.7160237291882,177.6093038783805,1048.766581425061,703.3401384257468,1.491122892221772,59.85746013886436,40.14253986113565,0.3421926910299003,0.5166271085540158,-17.892360581861986,-1587508378.6846108,57.74051226791661,0.47547797173732337,6.5585007392143275,0.7141281764435339,0.09419714503339104,5213573.684287959,0.0033250207813798837,0.0,242362.857166146,1.146911251937624e-05,11,2

373,810.6297833668858,666.16,931.84,74.28590038943179,64.38873626373626,90.06845202353789,4.541082263652196,30.174704301075263,0,117,48.39597314485255,33.35593747274105,8.755897884015766,37.14380116675776,21.689023457012524,72,19.35483870967742,221,59.40860215053764,Figure(432x432),710.9375,906.25,195.3125,12.433333333333334,245977288.15976775,245977288.1597678,810.6297833668858,810.72,48.331055646624165,0.7759714744883611,64.46999999999991,38.10696482350661,30.174704301075263,-0.18905913978494604,31.25999999999999,25.40000000000009,3.909999999999968,0.03395684200927995,-0.20879769210159488,0.02733688165522723,26.299666260417066,63.187561971208055,2392.350922992734,765.5553188802058,990.496063375757,636.299540736771,1.55665060237017,60.886325293219976,39.11367470678001,0.35474513054289264,0.5360467136067059,-18.944005290355562,-1573210569.3145945,50.21885358107205,0.4912863070539419,6.285523635834469,0.7746687146723837,0.10470642085810783,5306687.906081281,0.00995850622406639,0.0,245121.78995780897,9.981610381187161e-06,11,2

375,806.6371134781372,666.16,931.84,74.63783963701738,64.38873626373626,90.06845202353789,4.415600978597993,29.99243315508021,0,117,46.87372650473422,44.12223913862272,26.053439988853437,37.075931522215804,21.82549703868227,73,19.518716577540108,222,59.35828877005348,Figure(432x432),742.1875,914.0625,171.875,12.096774193548388,244820520.00755674,244820520.00755677,806.6371134781372,806.8100000000001,46.81118648154643,0.7724936059754293,58.295548813685514,36.62873191436142,29.99243315508021,0.01045454545454537,29.300000000000068,25.400000000000034,5.8599999999999,0.14544640407914589,-0.11623397356235446,-0.04122913709326327,26.25176098432543,60.86984079249013,1030.0844267068696,250.58992460012203,102.27758608130301,677.2169160254447,0.15102633094513576,13.121014427282853,86.87898557271716,0.3811101905550952,0.5399334520250422,-19.423097852138827,-1566503549.423813,59.61032734829468,0.43449419568822556,6.688488605007434,0.6442036104323823,0.09177498782271803,5252244.350607768,0.006633499170812604,0.0,243983.35634895606,9.284804906920208e-06,11,2

384,784.3817007690432,650.36,1009.7,76.85866040623264,59.42359116569278,92.25659634663879,5.245842267374144,28.158250652741515,0,123,55.09384925168982,31.586460193586657,60.222076056835974,35.438129973783255,21.544975051641746,56,14.621409921671018,218,56.919060052219315,Figure(432x432),679.6875,882.8125,203.125,13.241379310344827,237420318.8028292,237420318.8028292,784.3817007690432,777.31,55.022065704264136,0.7647542842386071,68.84000000000003,42.72962801559007,28.158250652741515,0.346762402088773,35.149999999999864,25.389999999999986,3.909999999999968,1.238847295809192,0.6854510395198236,0.08666044279335841,25.090118488037195,73.76415392988724,1676.0494064466998,438.8291142267826,232.2528185545498,1004.9674736653675,0.23110481148953582,18.772147532257467,81.22785246774255,0.2397003745318352,0.5241082402711192,-15.834437481255955,-1577259126.7856338,38.94244524413343,0.5700000000000001,5.6641604712030444,0.5432257472398502,0.1269878470488211,4990295.71280805,0.0033333333333333335,0.0,236529.7536571473,9.006817736856241e-06,11,3

384,782.3105539748616,656.22,1009.7,77.0215150232683,59.42359116569278,91.43275121148395,4.923611138390093,28.673394255874673,0,123,52.15956751302209,30.251136392503078,11.864906037735716,35.80883059423079,21.47820485280549,58,15.143603133159269,223,58.22454308093995,Figure(432x432),687.5,890.625,203.125,13.714285714285714,236053761.9434593,236053761.9434593,782.3105539748616,775.36,52.0916071356092,0.7558421501531268,66.40000000000009,40.33476126223424,28.673394255874673,0.10707571801566577,33.19999999999993,25.389999999999986,5.6920198933758,1.737168075863483,0.9097213509035951,-0.08544678209561168,25.35367416371796,69.2707165596765,1949.9952392433966,272.2113850888653,147.82098470417438,1529.962869450357,0.09661736742492283,8.810490358346208,91.1895096416538,0.26021684737281064,0.4980632988911112,-17.792794986339814,-1538962296.6053953,63.120024743488074,0.3806343906510852,6.983942984355414,0.4637232475447042,0.09192225606582927,4958890.724081635,0.00333889816360601,0.0,235352.23422351893,7.397183891921813e-06,11,3

381,787.4350202791255,656.22,1009.7,76.51202977434318,59.42359116569278,91.43275121148395,4.847467017217907,29.537184210526323,0,123,51.629512012392674,44.4871765460439,0.8974166188977546,36.730538845889825,21.861952858277185,60,15.789473684210526,225,59.210526315789465,Figure(432x432),687.5,882.8125,195.3125,12.7,237253470.6267593,237253470.6267593,787.4350202791255,779.27,51.56171223000836,0.7571683557404791,62.49000000000001,39.95425969255735,29.537184210526323,0.06681578947368418,31.25,25.389999999999986,5.8599999999999,1.5871355704067396,0.7987399356553868,-0.10764895465673689,26.00661189098645,68.2266015512073,906.0820769541637,199.88937905956553,132.9410763305255,573.2516215640726,0.2319070218550906,18.82504261611148,81.17495738388851,0.30409356725146197,0.5079708559623493,-17.916500718572795,-1542304476.3405514,65.31258235071896,0.3745819397993311,7.03854048695685,0.4841910733280421,0.08928989076208255,5019786.30886714,0.0033444816053511705,0.0,236413.07026553055,7.77859948554577e-06,11,3

386,777.3716650941627,656.22,931.6,77.40867326234954,64.405324173465,91.43275121148395,4.155046239642916,26.44994805194806,0,105,42.43272482316748,21.235490153473894,16.654261444483236,32.414019080477495,18.761213257047352,47,12.207792207792208,215,55.84415584415584,Figure(432x432),687.5,867.1875,179.6875,11.352941176470589,233955594.80915928,233955594.8091593,777.3716650941627,771.4499999999999,42.377724508640895,0.7362549046539849,56.14249999999993,33.54621030907505,26.44994805194806,-0.2840779220779221,27.339999999999918,23.42999999999995,3.910000000000082,0.3977474459204067,0.4836393894835062,-0.07387388774345219,22.949115873584805,55.4473656043106,909.7571815546071,357.06543651257067,223.30554287213127,329.3862021699052,0.6779444354409995,40.40327087844367,59.59672912155632,0.31064718162839255,0.5284422775655059,-19.89956662205472,-1454047728.4887748,41.648638709955826,0.5752508361204013,5.817450531389921,0.7374611890607048,0.11854334692804935,4873405.105977405,0.010033444816053512,0.0,233195.18404601692,9.872415793752501e-06,11,3

386,776.005577011261,656.22,945.2700000000001,77.57013116151894,63.47392808403947,91.43275121148395,4.3707002779712765,27.028389610389617,0,105,44.866160000064745,nan,nan,33.582199833793375,19.956571715953785,50,12.987012987012985,210,54.54545454545454,Figure(432x432),687.5,859.375,171.875,11.352941176470589,233218271.38385928,233218271.3838593,776.005577011261,770.4749999999999,44.80800552325735,0.741075255555677,56.15250000000003,34.71709139440098,27.028389610389617,0.09129870129870124,26.365000000000123,21.49000000000001,5.6920198933758,0.8576271602696148,0.6540386605547218,0.06459873072233838,23.777012788753535,58.8268500698981,1085.4765219011379,441.84687640866827,257.18738287486065,386.4422626176091,0.6655260248523898,39.95890877246265,60.04109122753739,0.3213389121338912,0.5038008855437275,-20.366659289017523,-1456663502.2893178,57.59687113804501,0.45896147403685095,6.654268969259391,0.7733812682120484,0.09281086834487393,4860979.907791828,0.010050251256281407,0.0,232366.32221894237,9.797535973977758e-06,11,3

382,785.1602617801046,656.22,945.2700000000001,76.730441110389,63.47392808403947,91.43275121148395,4.865258665879269,28.8141469816273,0,128,50.821147115713686,nan,nan,35.37514578584912,20.548823608777592,59,15.485564304461944,222,58.26771653543307,Figure(432x432),687.5,898.4375,210.9375,13.642857142857142,236478117.81800002,236478117.81800002,785.1602617801046,777.31,50.75458369865345,0.7615397709863408,69.8225000000001,40.66521065760258,28.8141469816273,-0.2306824146981624,33.19999999999993,25.38000000000011,5.860000000000014,0.11953505304442302,0.4987612579069873,0.1649727509950829,25.046364459962632,67.36659124263856,1313.167042119228,713.378339631904,210.36697655461148,389.42172593271243,0.5402034928861685,35.07351433633538,64.92648566366462,0.3141186299081036,0.47221742817501416,-18.743057439854464,-1500270602.233302,45.031152127457695,0.5652173913043478,6.014521323707386,0.7239519088938069,0.11119892644021723,4990332.47866348,0.006688963210702341,0.0,235744.3280689431,1.127259476086806e-05,11,3

383,783.0440731070496,662.08,945.2700000000001,76.96878885591998,63.47392808403947,90.62348960850652,5.1309357063939665,27.353167539267027,0,128,52.96414802026902,nan,nan,34.21597526905474,20.582667724939572,52,13.612565445026178,210,54.973821989528794,Figure(432x432),671.875,898.4375,226.5625,14.73076923076923,235911108.5966,235911108.5966,783.0440731070496,775.36,52.89495903185483,0.7655894077510685,72.2700000000001,42.46276271567739,27.353167539267027,0.09201570680628267,33.19999999999993,21.49000000000001,3.909999999999968,0.006422181092491819,0.3993498771052601,-0.08115589287178991,24.22599084072929,70.87667683244491,1685.2334430115066,625.0110344746043,637.3133133576988,422.90909517920346,1.5069747154235207,60.111284974365496,39.88871502563452,0.3007518796992481,0.44548694702275093,-19.1764712542024,-1503257618.490487,59.802561981336055,0.44816053511705684,6.775558072512782,0.6726658904616305,0.09047462001357663,4970271.564971855,0.006688963210702341,0.0,235231.04937751347,9.550728923230832e-06,11,3

383,783.7172323759789,662.08,945.2700000000001,76.88235904432837,63.47392808403947,90.62348960850652,4.986235309667542,27.72109947643979,0,128,51.295207079059125,38.068308542243095,27.340006034847132,34.269500322532004,20.17435881617113,54,14.136125654450263,217,56.80628272251309,Figure(432x432),671.875,882.8125,210.9375,13.206896551724139,236248581.9626,236248581.9626,783.7172323759789,779.27,51.22819828875558,0.7596757759946582,68.36000000000001,40.55270306566953,27.72109947643979,0.1329319371727748,35.15000000000009,23.439999999999998,5.860000000000014,0.1878626036782438,0.3375608887861337,-0.00235742211529255,24.263793461007133,68.36420748790043,1905.4742508626653,358.5263759747379,1112.478103917623,434.4697709703043,2.5605420175335056,71.914388453342,28.085611546658,0.3006263048016702,0.45010245134273297,-19.716772878095657,-1490417998.7240872,56.96768039896263,0.44481605351170567,6.665360585824856,0.6730965980805573,0.09346627507072815,4971828.103755964,0.006688963210702341,0.0,235390.47436041338,1.1663570721536704e-05,11,3

426,714.9078303577691,609.37,812.49,84.17855041890434,73.8470627330798,98.4623463577137,4.705762346315163,13.446423529411765,0,82,38.41092135519629,30.796832401233583,4.7597833094429545,17.392558746690604,11.044537566073501,5,1.1764705882352942,95,22.35294117647059,Figure(432x432),625.0,789.0625,164.0625,10.923076923076923,218352750.24004513,218352750.24004513,714.9078303577691,721.6725,38.36581162576919,0.6449563168690203,46.87999999999988,30.628941459227818,13.446423529411765,0.091929411764706,24.407499999999914,11.719999999999914,0.0,-0.08961146973610878,-0.5970212728278402,0.05376203816602442,12.312718521892032,52.90741650573013,1455.7125891504047,224.25113729489098,389.7928968585326,841.6685549969812,0.46311923445914005,31.652870357509705,68.3471296424903,0.14479638009049772,0.5162865403241155,-24.21972973664983,-1348220379.7095687,87.98252868210307,0.2504118616144975,8.456302808216453,0.6013302345652108,0.06434464337337054,4123301.4594475655,0.0032948929159802307,0.0,217731.365442454,3.276420880232911e-06,12,1

423,717.6113493593139,609.37,812.49,83.88190324600758,73.8470627330798,98.4623463577137,4.878688315283376,13.097677725118482,0,82,40.08399895682768,33.76021700545503,2.483476112765681,17.220360494783264,11.193236621660825,5,1.1848341232227488,93,22.03791469194313,Figure(432x432),656.25,789.0625,132.8125,9.4,218508677.3948324,218508677.39483243,717.6113493593139,722.65,40.03659030752779,0.6457915305052987,50.77999999999986,31.836914293296527,13.097677725118482,-0.0647867298578197,23.43999999999994,11.719999999999914,0.0,-0.12902228165338503,-0.5789971602515968,0.11032761576648344,12.191000384783527,55.36093798302313,1169.7711769429054,104.26703276605853,258.5849859607698,806.919158216077,0.3204595941586578,24.268792136940878,75.73120786305911,0.15848122162608339,0.5078639555296919,-24.128465577001172,-1349982576.6445265,100.35010615540133,0.21818181818181817,8.96033826386835,0.639601641926942,0.058564490623440414,4158480.2839018838,0.003305785123966942,0.0,217918.13153202838,2.98846510898312e-06,12,1

417,724.6173811347751,613.27,792.96,82.98295207064146,75.66585956416465,97.83618960653546,3.955563485415424,11.699711538461539,0,50,33.24700650233521,18.166245983944382,9.258490797645855,15.38944683134795,10.009628937158816,2,0.4807692307692308,77,18.509615384615387,Figure(432x432),664.0625,789.0625,125.0,8.176470588235293,219414166.74238092,219414166.74238092,724.6173811347751,726.5500000000001,33.20711805785571,0.6189655885206177,39.059999999999945,25.817859930191823,11.699711538461539,0.028173076923076988,19.530000000000086,7.82000000000005,0.0,0.49882980665588716,-0.6703483704293147,0.07029715217868102,10.895066889762475,45.73865323990465,625.697160965391,42.82616276196994,131.39456593833216,451.4764322650889,0.29103305631949916,22.54264946160105,77.45735053839894,0.14593698175787728,0.5291599102357808,-28.445071494391588,-1307388956.423378,125.3896778351036,0.1892116182572614,9.836087947077875,0.8055674773786268,0.04866345651909465,4227031.935595735,0.00995850622406639,0.0,218808.40663805453,1.909183413794712e-06,12,1

410,733.302114392269,644.52,792.96,81.94502628600834,75.66585956416465,93.09253397877491,3.218332391988627,11.088117359413204,0,50,28.220303340809185,21.023113175837175,7.688529530229205,14.591308470988785,9.496337523457516,1,0.24449877750611246,61,14.91442542787286,Figure(432x432),671.875,789.0625,117.1875,8.72340425531915,220795837.97653544,220795837.97653547,733.302114392269,734.36,28.185867326346195,0.5904036410892542,39.06000000000006,22.454947876463706,11.088117359413204,0.12415647921760385,19.530000000000086,7.810000000000059,0.0,0.1256785471219639,-0.4064717211605971,0.04555217312723419,10.329875589945699,38.54950987484557,681.0608453605362,21.297318876384296,306.2801247739314,353.48340171022056,0.8664625362664536,46.4227124536701,53.57728754632992,0.15000000000000002,0.5332301661835753,-30.738398286925037,-1275291388.2271652,74.34886188036991,0.26688907422852376,7.888775290245804,0.756127019911035,0.0686455320820297,4321601.417811334,0.003336113427856547,0.0,220205.55309285125,2.7115516246487238e-06,12,1

408,737.8246623688567,644.52,818.35,81.45823785212012,73.31826235718214,93.09253397877491,3.3943645783050744,11.065921375921375,0,50,30.148343428879436,16.48186768114679,10.030218696426935,14.56239625494732,9.477841528597246,1,0.2457002457002457,59,14.496314496314497,Figure(432x432),664.0625,796.875,132.8125,8.326530612244898,222479106.3219676,222479106.32196763,737.8246623688567,738.27,30.11137426300682,0.5996775089859717,39.06000000000006,23.774054785651092,11.065921375921375,-0.04798525798525792,19.530000000000086,7.819999999999936,0.0,0.2140013803814722,-0.3440745473711676,0.08133711725693026,10.309786613633898,41.37092605916202,571.884260292301,17.001883372271557,240.5488504950258,314.33352642500364,0.7652662865169044,43.35132282092536,56.648677179074646,0.16645859342488556,0.5190165917743832,-31.209454048625105,-1294242025.947015,116.56869103116695,0.2,9.601656113823468,0.6593294405143899,0.05015818685177268,4376926.051325509,0.0033333333333333335,0.0,221863.5462213609,1.8779765000962263e-06,12,1

403,743.4655831265509,656.24,824.21,80.85251800150941,72.79698135183995,91.42996464708034,3.509652121402922,11.150124378109453,0,50,31.78534705501694,nan,nan,15.04018708699929,10.106236870134428,1,0.24875621890547264,60,14.925373134328357,Figure(432x432),671.875,804.6875,132.8125,8.574468085106384,223160796.46889997,223160796.4689,743.4655831265509,746.0799999999999,31.74588664619036,0.6059703300763133,42.960000000000036,25.09458995499018,11.150124378109453,0.16032338308457694,19.530000000000086,7.810000000000059,0.0,0.09163677027819306,-0.22030979508513543,0.08660441985830263,10.647665653221518,43.672002369400865,569.4542404974782,39.011754411640446,269.2957036488626,261.14678243697506,1.0312043714873425,50.76812486043669,49.2318751395633,0.1739857800083647,0.5248463396613489,-28.25782144910951,-1302182970.1882796,67.66566161825378,0.2780569514237856,7.5624290974813455,0.7127758845350953,0.07311019004847472,4446042.3262619395,0.0033500837520938024,0.0,222474.13661565917,2.5758287246308566e-06,12,1

397,755.0413853904282,656.24,828.11,79.62926756831469,72.45414256560119,91.42996464708034,3.6476211058729286,10.850505050505053,0,46,33.98510303245161,nan,nan,14.50707676489741,9.641397989260488,0,0.0,53,13.383838383838384,Figure(432x432),687.5,820.3125,132.8125,9.232558139534884,226782109.92229998,226782109.92229998,755.0413853904282,753.9,33.94227364803474,0.6161758775962793,42.969999999999914,26.946914960440083,10.850505050505053,0.14797979797979774,23.42999999999995,7.810000000000059,0.0,0.014180445973370759,-0.2502362273733854,0.15293404853440393,10.270494656338194,46.95201162641312,735.8812539088499,78.32683138758468,153.12339850950158,504.43102401176367,0.30355666329105613,23.28680231856392,76.71319768143609,0.1605351170568562,0.49779527287095326,-28.6205679716508,-1324300449.9914732,73.06950677858312,0.24769874476987447,7.861222492968943,0.6727432609680541,0.06804248664750952,4589833.085585962,0.0066945606694560665,0.0,226121.5226422668,2.2315493511230736e-06,12,1

437,699.3718397567444,605.46,1296.8999999999999,86.30960582421949,46.26416840157299,99.09820632246556,5.911934688313003,23.54442660550459,0,658,64.18270619922092,44.82845004795891,12.651949525460042,72.96253386570028,69.13866488541257,11,2.522935779816514,125,28.6697247706422,Figure(432x432),609.375,773.4375,164.0625,10.658536585365853,215541931.01887268,215541931.0188727,699.3718397567444,691.4,64.1092285492599,0.6678975120704063,58.59000000000003,36.096916356715866,23.54442660550459,-0.15231651376146782,27.34999999999991,11.720000000000027,0.0,46.946344579508,5.606676801992869,0.005067208100433019,51.65145737318607,74.6389074232532,1772.580139599945,462.91312797223463,398.07261658899,911.5943950387202,0.43667734110199496,30.394948720152026,69.60505127984797,0.42295081967213116,0.6380136570099255,-8.955720095984596,-1742873298.357123,26.502403826019812,0.9220672682526662,4.3627790149916965,0.9176266256755128,0.20379216635928832,3990377.887217764,0.006562756357670222,0.0,214385.91604464644,0.00010891406230109635,12,2

433,702.3395788769321,605.46,1296.8999999999999,85.89068596508639,46.26416840157299,99.09820632246556,5.620038086020024,24.36824074074074,0,658,60.66067768688418,56.951268391542804,23.507168233475173,77.10016932080964,73.23277541882501,10,2.314814814814815,137,31.712962962962965,Figure(432x432),609.375,781.25,171.875,10.825,215180260.8938231,215180260.8938231,702.3395788769321,695.3000000000001,60.590590225366704,0.6596247930386119,54.690000000000055,34.20349286787005,24.36824074074074,-0.15370370370370365,27.340000000000032,14.332711761858661,0.0,54.615333555477484,5.910369088496454,-0.042901718495435226,54.58115345430224,66.18408662557798,1056.4250619545096,355.2031823945457,164.99238082497288,536.2294987349911,0.307689862669255,23.52926878558184,76.47073121441818,0.5634266886326195,0.6659466650458356,-9.543308046440542,-1677529677.6879547,25.675356350303257,0.9431162407254741,4.2500956630106055,0.7895164977829258,0.20831547937718706,4009084.9832231663,0.006595218466611707,0.0,214038.42319626312,0.0001147546257854956,12,2

436,694.0585357695244,605.46,1296.8999999999999,86.90568638045168,46.26416840157299,99.09820632246556,5.547259842148995,24.406712643678162,0,658,60.16067795099211,34.34291320682769,38.7859153429041,76.87696743195018,72.98373528273443,10,2.2988505747126435,136,31.264367816091955,Figure(432x432),601.5625,757.8125,156.25,10.13953488372093,211603120.08811027,211603120.08811027,694.0585357695244,687.49,60.0916467430004,0.6402622660426959,47.854999999999905,32.30134477745073,24.406712643678162,-0.14367816091954022,23.43999999999994,13.669999999999959,0.0,59.52371095117424,6.338850540847367,0.00846507318587449,54.42272089411062,65.39710844928628,1284.0439841016532,169.451295853104,244.46657653761358,870.1261117109357,0.280955338826595,21.93326576740459,78.06673423259542,0.533112582781457,0.6630304844236682,-9.529876024528196,-1645439425.5752485,25.98011848511063,0.9312344656172328,4.251542166341141,0.7416746408067119,0.20463313800270327,3915534.7387815835,0.0033140016570008283,0.0,210462.95787683318,0.00011373590261080537,12,2

437,691.3641403300362,574.21,1296.8999999999999,87.3819565297737,46.26416840157299,104.4913881680918,6.407434660280887,26.50110091743119,0,660,67.81392364600661,37.38441906327984,14.612928011423078,86.27152712003732,82.19466753153245,12,2.7522935779816518,129,29.587155963302752,Figure(432x432),585.9375,765.625,179.6875,11.81081081081081,210884217.18424085,210884217.18424088,691.3641403300362,687.49,67.73628890544772,0.6597415696108061,54.409565135542266,36.945348794174045,26.50110091743119,-0.02688073394495393,27.339999999999918,13.670000000000016,0.0,44.61436862274238,5.447803023550467,-0.08629537355014837,61.07325723331664,73.94263811527124,1154.1200463003072,131.34231361879512,204.12145441101424,818.6562782704979,0.24933718805924684,19.957557530691435,80.04244246930855,0.4842454394693201,0.6620576164883641,-8.464925921392558,-1712471281.620033,24.66589773978644,0.9659751037344398,4.131732900500059,0.7072911208948884,0.21911370654217618,3902036.418883469,0.0033195020746887966,0.0,209568.9549679608,0.000147199320937959,12,2

432,700.1861282843664,574.21,2222.6,86.54599189940394,26.995410780167372,104.4913881680918,6.9623822664362525,26.337401392111364,0,1492,97.4683603943906,51.39938690338315,8.71187371113359,101.8743898925327,98.52540402276514,12,2.784222737819025,115,26.68213457076566,Figure(432x432),601.5625,789.0625,187.5,12.342857142857143,215887120.3832851,215887120.3832851,700.1861282843664,695.3000000000001,97.35548443249932,0.6596191807611657,58.59249999999986,41.54254940379489,26.337401392111364,-3.516426914153132,27.34999999999991,11.720000000000027,0.0,143.21881221686345,10.157085279993357,-0.05869615270747471,72.07681005384727,117.49508929484347,1511.4127484781345,245.5584088808862,405.6316610590708,860.2226785381775,0.47154262632134086,32.04410241925062,67.95589758074938,0.5333333333333333,0.6934944261653735,-4.138375350955329,-2059040059.275897,5.811097168370713,2.998341625207297,1.9294979114515698,0.6797758781581094,0.5915104538978538,4077685.8872170513,0.003316749585406302,0.13930348258706468,213144.1912998248,0.0007067299918932103,12,2

433,698.2362407677454,574.21,1484.3999999999999,86.51194265214514,40.42037186742118,104.4913881680918,6.3950971500502,22.053796296296294,0,746,67.54655422218349,56.983321010547144,18.123509012617856,71.12788587336935,67.70093039938527,9,2.083333333333333,115,26.620370370370374,Figure(432x432),593.75,781.25,187.5,12.371428571428572,213073172.12850708,213073172.12850708,698.2362407677454,699.21,67.46851080591763,0.6490194915412447,54.68999999999994,37.767349151584625,22.053796296296294,-1.745231481481481,27.340000000000032,11.720000000000027,0.0,58.69643218219202,5.849551934599601,-0.006190977264347279,50.33816383578585,81.18585613407258,1456.347223064784,429.75099009008744,375.90848986061644,650.68774311408,0.5777094986630343,36.61697537807757,63.38302462192244,0.5934521342726896,0.673010815534431,-7.077045561664745,-1659721012.8276405,8.498943085132826,2.599170124481328,2.4628660101586437,0.6913385621652925,0.43530866854058486,3971412.0141000575,0.0033195020746887966,0.013278008298755186,211499.22916823137,0.00023681327776773055,12,2

384,782.1357552083333,710.9100000000001,863.24,76.80867390369737,69.50558361521709,84.39886905515465,2.72601901242486,11.718146214099217,0,44,27.554736533550695,16.55608782530166,6.182485675439344,14.705702513752156,8.896594410459539,0,0.0,57,14.882506527415144,Figure(432x432),710.9375,828.125,117.1875,7.529411764705882,235197552.31950003,235197552.3195,782.1357552083333,785.12,27.51883458145216,0.5724830377441754,35.15999999999997,21.226044108072923,11.718146214099217,0.05099216710182761,15.629999999999995,11.710000000000036,0.0,0.40934530211373943,-0.08429757239912201,0.05754443834559695,10.412041082636668,37.55151676510914,538.1116814036407,89.24303645412041,118.62729337927445,330.2413515702458,0.35921392888934195,26.42806413725229,73.57193586274772,0.17688777638715059,0.51727365865828,-36.07155982746598,-1331844797.8902874,128.16671171223948,0.1971595655806182,10.020501772204858,0.7906279356505239,0.045308574813001865,4913397.737962437,0.010025062656641603,0.0,234531.4258323792,1.4395653795069272e-06,12,3

381,787.5612598425196,710.9100000000001,863.24,76.27981444509223,69.50558361521709,84.39886905515465,2.7043016635831636,11.46121052631579,0,41,27.853309479035627,15.313413492646532,16.266284394415273,14.318301795806285,8.593530032833929,0,0.0,54,14.210526315789473,Figure(432x432),718.75,835.9375,117.1875,8.106382978723405,236611099.7824,236611099.7824,787.5612598425196,789.03,27.816732563086696,0.5794768666415345,35.14999999999998,21.831098848864368,11.46121052631579,0.06168421052631563,15.629999999999995,11.70999999999998,0.0,0.1254968185418579,0.043699753758783336,0.09407611476231466,10.137822368607944,38.06360801989775,363.4754110366155,74.48826727367884,49.10501107301836,239.88213268991834,0.20470474612835607,16.99210921067839,83.00789078932162,0.15365344467640918,0.49018043205210904,-36.51248570426259,-1334641794.9588873,120.30325624076526,0.2040133779264214,9.770702187884075,0.7674503625153934,0.04710475648816441,4981364.872869431,0.010033444816053512,0.0,235945.59595001905,1.441728047366329e-06,12,3

380,790.0500789473683,710.9100000000001,886.6800000000001,76.05328398917996,67.66815536608472,84.39886905515465,2.8733669093634053,11.780105540897097,0,50,30.02031700324434,16.401311181386717,17.27041147232525,14.967248413317762,9.245169623348886,1,0.2638522427440633,59,15.567282321899736,Figure(432x432),718.75,851.5625,132.8125,9.047619047619047,237529630.51810002,237529630.5181,790.0500789473683,789.03,29.980790564768373,0.5946879361675727,39.059999999999945,23.803872576177284,11.780105540897097,0.1133509234828494,19.529999999999973,11.709999999999923,0.0,0.22448310745646483,0.2716390253417724,0.018612079249709555,10.597128956567712,41.111308952992935,774.3225037545332,104.56721981491202,188.1897151556972,481.56556878392394,0.3907873140326961,28.098280023821747,71.90171997617826,0.15025041736227046,0.503948348752589,-32.78869080605486,-1359137839.0809393,89.4439031188089,0.24728487886382622,8.610459374880982,0.8615274289431465,0.058670380026672485,5015954.785945722,0.013366750208855471,0.0,236839.9550687563,1.862488385570151e-06,12,3

377,794.5702387267904,710.9100000000001,886.6800000000001,75.63254022354198,67.66815536608472,84.39886905515465,3.02149642030627,12.21696808510638,0,50,31.692023145578435,nan,nan,15.243325100068647,9.128322042758569,1,0.26595744680851063,60,15.957446808510639,Figure(432x432),718.75,867.1875,148.4375,9.425,238393531.3384,238393531.3384,794.5702387267904,792.9300000000001,31.649963375028133,0.5966916312130277,42.97000000000003,25.648037768506075,12.21696808510638,0.0,23.430000000000064,11.71000000000015,0.0,-0.15005564792113324,0.06893945433697549,0.0898529334039231,10.793020522541404,43.500337586273496,545.2714238484034,41.58694595711926,178.43950834091865,325.2449695503655,0.5486311089994785,35.426842829854536,64.57315717014546,0.1606694560669456,0.4720850666172015,-34.3541061673129,-1359426776.336845,135.12798235706205,0.20770519262981574,10.097399383322369,0.8347923881047473,0.042673484669125135,5075241.255482484,0.006700167504187605,0.0,237620.69075110345,1.563135911985337e-06,12,3

375,800.9589066666666,710.9100000000001,886.6800000000001,75.02127941667463,67.66815536608472,84.39886905515465,2.9038669023587635,11.88532085561497,0,50,30.763696060868405,26.269533548149134,52.799436472018265,15.031438471196589,9.214679789516138,1,0.267379679144385,59,15.775401069518717,Figure(432x432),726.5625,851.5625,125.0,8.333333333333334,240929644.28149998,240929644.28149998,800.9589066666666,804.65,30.722650417424745,0.5915222127406751,39.059999999999945,24.159815395555547,11.88532085561497,-0.27152406417112257,19.529999999999973,10.734999999999957,0.0,0.04957319308392272,-0.08414280878994375,0.04171084082375565,10.641333748931284,42.18497370740957,649.9458028653605,118.12705410371797,224.82625292779005,306.99249583385256,0.7323509726748119,42.27497685091121,57.72502314908879,0.1567973311092577,0.48491480621578226,-30.31794951208827,-1377281264.2482245,48.02547110989052,0.40734557595993326,6.3915497447099705,0.6493331680957228,0.09226832686028391,5156819.841088707,0.00333889816360601,0.0,240348.01756738784,3.6240498333411397e-06,12,3

376,797.4782978723404,707.0,886.6800000000001,75.35575393614688,67.66815536608472,84.86562942008487,3.0156676245345313,12.113973333333332,0,58,31.498803791493977,nan,nan,15.437448459293176,9.581821076026038,2,0.5333333333333333,63,16.8,Figure(432x432),726.5625,851.5625,125.0,8.744186046511627,239497400.4672,239497400.46719998,797.4782978723404,800.75,31.45688919702368,0.5931573644986229,39.06000000000006,24.740826165685828,12.113973333333332,0.031253333333333404,19.529999999999973,9.759999999999991,0.0,0.20368091014321665,-0.20294269818555566,-0.013742904227100387,10.930485829511978,43.18418414328223,963.8718598458356,298.7858510084244,211.75232274265807,453.3336860947531,0.46710034845810877,31.83833668562762,68.16166331437236,0.1671541997492687,0.4512229377143886,-34.1339293446057,-1365811740.560864,120.44151373963096,0.24435146443514644,9.564964757661993,0.5929089738479687,0.046998424593928494,5112922.321806211,0.0033472803347280333,0.0,238810.64490318386,1.958496157181953e-06,12,3

376,798.2677659574468,707.0,886.6800000000001,75.2977049251119,67.66815536608472,84.86562942008487,3.209623827420088,12.072319999999994,0,58,33.71286104435138,19.577562049993634,42.54832150835975,15.337028760486822,9.472212087071314,2,0.5333333333333333,63,16.8,Figure(432x432),718.75,851.5625,132.8125,8.173913043478262,240025225.11360002,240025225.11360002,798.2677659574468,800.75,33.66800026460681,0.608918562520878,39.54750000000013,26.568003055681295,12.072319999999994,-0.06250666666666681,19.529999999999973,11.709999999999923,0.0,-0.03699096576152261,-0.09567120076129505,0.020025507082792285,10.859315725513344,46.424015999966095,588.9516856157769,305.54006294113617,128.33310399607436,155.07851867856644,0.8275363028329688,45.28152472539985,54.71847527460017,0.21035058430717865,0.4310157782623126,-33.16858928154265,-1376181700.55272,108.95360681154862,0.25396825396825395,9.282035031620124,0.6857326635453616,0.05080037650929291,5127175.684183601,0.006683375104427736,0.0,239420.30391185315,2.135059970690044e-06,12,3

376,796.2627925531913,707.0,874.9599999999999,75.47111758725386,68.57456340861297,84.86562942008487,3.015986471579099,11.436826666666663,0,58,31.580552081634842,nan,nan,14.4405885660292,8.828217660932795,1,0.26666666666666666,53,14.133333333333335,Figure(432x432),718.75,843.75,125.0,8.355555555555556,238770946.7127,238770946.7127,796.2627925531913,796.84,31.53852870695649,0.5956080261956652,39.06000000000006,24.76358660593029,11.436826666666663,-0.08333333333333333,19.529999999999973,7.82000000000005,0.0,0.008453129048736852,-0.0709482723812763,-0.12550117162368013,10.224509855368675,43.47553263364545,622.4721175024606,216.67863480508979,143.75147733384196,262.0420053635289,0.5485818089905724,35.42478710557501,64.57521289442502,0.200920887400586,0.4255909551391981,-34.788618241299766,-1350331202.4207463,101.9624304768617,0.24811399832355407,9.065790244578512,0.6973953235866462,0.05282725277816864,5096980.10079475,0.006705783738474434,0.0,238032.56137622072,1.9681488130197827e-06,12,3

378,794.7469312169313,707.0,874.9599999999999,75.60973309869011,68.57456340861297,84.86562942008487,2.950248537529055,10.90989389920424,0,58,30.841083086399635,18.201580389800313,1.2919516113609109,14.208404814545695,9.114457535088167,1,0.2652519893899204,50,13.262599469496022,Figure(432x432),726.5625,851.5625,125.0,8.590909090909092,239111966.8056,239111966.8056,794.7469312169313,796.84,30.800260986328617,0.5923380864770573,35.14999999999998,23.93999580078944,10.90989389920424,-0.12432360742705571,19.529999999999973,7.819999999999936,0.0,0.11480622758120695,-0.017910933956121557,-0.03122277978797058,10.059825583047136,42.43989539481785,809.5626390764602,115.64627977179919,460.4189224551029,233.49743684955808,1.9718371587596908,66.35078079387921,33.64921920612078,0.16013344453711426,0.42772040757253965,-35.18160543534913,-1350652310.9948134,83.2370055450244,0.27045075125208684,8.31282331362378,0.7398618760688014,0.060274323644296746,5076287.395123322,0.00667779632721202,0.0,238450.72812586592,2.211930139103015e-06,12,3

379,790.6351451187335,707.0,874.9599999999999,75.99223726724529,68.57456340861297,84.86562942008487,2.8152534321909832,11.067010582010582,0,58,29.294107939407493,nan,nan,14.201863233821447,8.912031941192911,1,0.26455026455026454,47,12.433862433862434,Figure(432x432),718.75,851.5625,132.8125,8.23913043478261,237238769.21140003,237238769.21139997,790.6351451187335,789.03,29.255435832858435,0.5824500891577158,35.15999999999997,22.871834921784167,11.067010582010582,0.14468253968253983,19.529999999999973,7.819999999999993,0.0,0.15306822240997864,0.12138434642260187,-0.004729499650621154,10.055021761053444,40.189377418865995,820.5540077321299,379.7274339207178,327.446637551318,113.37993626009401,2.8880474654717934,74.2801493839619,25.719850616038077,0.17725752508361203,0.41701803621439254,-35.67891946679383,-1328351425.3269506,70.01588034524393,0.301255230125523,7.675508328908896,0.9112180422572365,0.06815318063648375,5023707.641319819,0.0066945606694560665,0.0,236642.74438470666,2.454465629292634e-06,12,3

379,791.6762005277044,730.4399999999999,874.9599999999999,75.88231721024462,68.57456340861297,82.14227041235421,2.660794172857345,10.45732804232804,0,42,28.000894483480806,16.78021787957777,1.8723364478560507,13.315962980791893,8.254660704455619,0,0.0,40,10.582010582010582,Figure(432x432),718.75,851.5625,132.8125,8.613636363636363,237835078.1914,237835078.1914,791.6762005277044,789.03,27.963929590159122,0.577139053173362,37.1099999999999,22.347865442317996,10.45732804232804,0.020661375661375818,19.529999999999973,7.814999999999998,0.0,-0.017638769821914035,0.34256204474515817,-0.045156234914462766,9.428275910830013,38.460470578235444,598.1314475140136,292.8981956497661,200.57143965813725,104.66181220611027,1.91637652196536,65.71087469439318,34.2891253056068,0.21377870563674323,0.4226754462975639,-39.609251038014804,-1327619424.5967531,136.22760341277234,0.2040133779264214,10.22258470862755,0.8896733255597334,0.0410540783393658,5034144.329132623,0.006688963210702341,0.0,237191.26947249623,1.5211283513717373e-06,12,3

381,786.3414698162729,714.81,851.5200000000001,76.38548852971206,70.46223224351746,83.93838922231083,2.525595234712334,10.525473684210528,0,42,25.858319397139507,nan,nan,13.295857981856015,8.134394291367512,0,0.0,41,10.789473684210527,Figure(432x432),718.75,843.75,125.0,8.282608695652174,235838925.6444,235838925.6444,786.3414698162729,785.12,25.824362298580656,0.5550516698026602,35.14999999999998,20.911238969144602,10.525473684210528,0.10278947368421068,15.629999999999995,7.819999999999936,0.0,-0.3388038020707378,-0.08318556567559067,0.0016812075949840478,9.413704995674706,35.33677294750288,450.8626138218806,182.83112781454483,168.40551647299864,99.62596953433714,1.690377692283897,62.83049763354652,37.16950236645351,0.21413634462567963,0.46476257354397793,-39.208505046481044,-1306515993.8292966,91.40853453992668,0.24120603015075376,8.690896870341064,0.6300814802524007,0.0554757181812376,4964355.2633861415,0.0033500837520938024,0.0,235172.20643804013,1.7437969118552266e-06,12,3

379,792.1348812664908,714.81,863.24,75.83140151973308,69.50558361521709,83.93838922231083,2.5746829735435037,11.128835978835978,0,42,26.784231426239035,13.404415805731986,10.51050628036558,14.13919974086827,8.733140648762213,0,0.0,54,14.285714285714285,Figure(432x432),734.375,851.5625,117.1875,8.063829787234043,238085212.3052,238085212.30519998,792.1348812664908,792.9300000000001,26.748872689468737,0.5704199167694277,31.25,21.119014626743063,11.128835978835978,-0.10333333333333349,15.629999999999882,7.82000000000005,0.0,0.03041542451193413,-0.01847591658185375,-0.020250723554707927,10.01090772481702,36.53179208188205,369.1191720240254,35.581415597407904,107.85651957901635,225.68123684760113,0.47791531580381275,32.33712450864499,67.66287549135501,0.22370617696160267,0.4509544152205942,-38.443023501037054,-1325886490.565748,90.75154200479541,0.2573099415204678,8.616685480939118,0.5421685172181784,0.05638675757136409,5037967.577558239,0.003341687552213868,0.0,237394.79076865414,2.0505841568404494e-06,12,3

353,862.2390644702643,708.94,982.36,69.74810427450171,61.077405431817255,84.63339633819504,3.425235594103232,22.22630681818182,0,82,40.98800618990792,35.43382266770294,10.515795881781646,27.366126966967236,15.988195344342486,21,5.965909090909091,165,46.875,Figure(432x432),757.8125,929.6875,171.875,11.387096774193548,263031405.97869176,263031405.97869182,862.2390644702643,865.18,40.92990834895542,0.7577133071949593,52.73000000000002,32.196919317006625,22.22630681818182,-0.14426136363636324,27.339999999999918,19.529999999999973,6.707848905062292,0.8416678041312706,-0.47751686539502386,-0.015352061270701151,19.378050298572752,54.63080147200702,1140.3649003971968,458.84385251706567,243.8324280716971,437.688619808434,0.5570910849325185,35.777681236718514,64.22231876328148,0.2471169686985173,0.49556593148158645,-26.162417012512986,-1584968712.266332,73.07615289344156,0.30667765869744434,7.693314856005165,0.8275300877303748,0.07380413460507268,5984868.100870183,0.00989282769991756,0.0,262075.50711115112,3.6245143959987916e-06,13,1

351,860.4238331876458,693.32,949.16,69.9116414864933,63.21378903451473,86.54012577164944,3.6439049420426692,23.748314285714287,0,80,42.449178985272596,25.91617707647486,11.463898484978921,28.776837195500892,16.275156824068123,26,7.428571428571429,178,50.857142857142854,Figure(432x432),773.4375,937.5,164.0625,10.636363636363637,260486216.1025632,260486216.1025632,860.4238331876458,867.14,42.38866693884936,0.75067866347662,51.21322093168476,32.55577966656156,23.748314285714287,0.3459714285714283,25.379999999999995,21.47999999999996,7.7081085300361565,1.5356910786058773,-0.8634774253147256,-0.06919301904986982,20.37595540542857,56.468451673154654,1387.3432105024153,545.0508954798975,610.4004292454462,231.8918857770718,2.6322629927303787,72.46895387251962,27.531046127480387,0.2556016597510374,0.4979135008834341,-23.521712604747535,-1568286371.7523541,42.24659665271807,0.5182724252491695,5.943083734315616,0.922572013065439,0.11002533364930425,5965451.041020607,0.009966777408637873,0.0,259712.22257685772,5.605544676602691e-06,13,1

355,851.6742032865751,693.32,949.16,70.62625681035321,63.21378903451473,86.54012577164944,3.6297147722260346,24.0040395480226,0,80,41.73771906684928,29.74112350393274,10.795080829576456,28.56293198091353,15.502453221564064,23,6.497175141242938,192,54.23728813559322,Figure(432x432),757.8125,921.875,164.0625,10.757575757575758,258115557.89934474,258115557.89934474,851.6742032865751,857.37,41.67889209037317,0.7489594105612684,51.663329066629785,32.63794431705312,24.0040395480226,-0.06070621468926556,25.389999999999986,21.49000000000001,7.809999999999945,1.0730415170866543,-0.7534596192584379,-0.05536697183805429,20.22558469122787,55.452683521218674,587.3799820529538,232.73674226947054,251.2822251166385,103.36101466684478,2.4311122131160983,70.85493164061192,29.145068359388084,0.2620232172470979,0.5151380787206176,-25.33902013543775,-1562190137.8333418,86.0837564307073,0.30539419087136926,8.131940721956541,0.7360070877477825,0.06643511018319961,5841752.990936262,0.0033195020746887966,0.0,257207.25513139516,3.5454012779831887e-06,13,1

352,859.1048357009494,693.32,949.16,69.99234500881461,63.21378903451473,86.54012577164944,3.3497329213055504,24.66,0,80,39.28287274698929,28.184761955767513,19.656686152943056,29.503817851582163,16.220643232321294,27,7.6923076923076925,192,54.700854700854705,Figure(432x432),781.25,921.875,140.625,8.8,260339157.36714473,260339157.36714476,859.1048357009494,865.18,39.22703352509238,0.7423078065241508,51.14121544952002,30.36501020155657,24.66,0.2670655270655271,24.134703816486535,23.42999999999995,7.809999999999945,1.4488354645406005,-0.7637756818404132,-0.03926327963233723,20.89127583747,51.476623591636724,528.5955001381054,43.575236481902586,205.60525899915496,279.41500465704786,0.7358418680897738,42.39106577718045,57.60893422281955,0.25859925404061335,0.547270258718374,-24.2669272971961,-1567310713.3267272,50.96496595517419,0.41161825726141077,6.5009804685469215,0.6403699833769727,0.09665542952242506,5939023.758128014,0.0033195020746887966,0.0,259489.4401807905,4.736086364575267e-06,13,1

352,854.4131426115617,693.32,949.16,70.37595210980648,63.21378903451473,86.54012577164944,3.3412100243731935,25.51700854700855,0,80,39.19683379955595,31.3535145700652,5.552633960851433,30.342563538374506,16.441520293726533,32,9.116809116809117,204,58.119658119658126,Figure(432x432),765.625,921.875,156.25,10.057142857142857,257506953.54486084,257506953.54486084,854.4131426115617,857.37,39.141116878996534,0.731960042248142,49.309999999999945,30.540682845981504,25.51700854700855,-0.24481481481481468,25.389999999999986,23.43999999999994,6.374342852232871,1.1753300880633812,-0.5204229706503984,0.019377230689685,21.485361825908555,51.09953803147162,1143.912882322877,83.55131686154496,537.8947301088061,522.466835352526,1.0295289455949304,50.72748274073703,49.27251725926299,0.26,0.5513595289234734,-24.121655472179917,-1546579510.7828655,53.42390261258003,0.4203502919099249,6.630435720615511,0.812296089908781,0.0942789539524601,5873651.680548095,0.006672226855713094,0.0,256660.2551442983,4.9984916914722794e-06,13,1

352,853.8990426356391,693.32,949.16,70.42014068723284,63.21378903451473,86.54012577164944,3.3595773431756744,25.661367521367524,0,80,39.4471397278873,33.55491174538316,0.27199035135288174,30.44230500346104,16.401052313871784,31,8.831908831908832,199,56.69515669515669,Figure(432x432),765.625,914.0625,148.4375,9.777777777777779,257204721.37323123,257204721.37323126,853.8990426356391,855.42,39.39106700625488,0.7278484526967515,48.819999999999936,30.65086574072146,25.661367521367524,0.15578347578347596,25.389999999999873,23.43999999999994,7.809999999999945,1.0794051613578448,-0.472962930106721,0.02358216058295313,21.556407485173146,51.45361952045842,1046.7584677155219,263.96950687396645,427.43568978489725,355.35327105665823,1.2028472075517944,54.60420511364552,45.39579488635449,0.2768974145120934,0.5396230368318078,-24.985485466172932,-1540830626.979193,65.84920972984514,0.34390651085141904,7.269553052114827,0.8404491162872694,0.08122044749555105,5867913.5211761845,0.00667779632721202,0.0,256320.07915116352,4.718303649072153e-06,13,1

335,904.8231932577743,611.53,1039.4,66.63745160376705,57.725610929382334,98.11456510719016,4.86857953308712,37.92847305389222,0,394,61.33398140830437,35.90539519927104,10.994698110692882,52.936621401477765,36.98394331194112,92,27.54491017964072,210,62.874251497005986,Figure(432x432),820.3125,1023.4375,203.125,13.958333333333334,275522639.03414226,275522639.03414226,904.8231932577743,910.46,61.24236973445391,0.7963312165293388,70.33999999999992,46.648869625683815,37.92847305389222,0.058473053892215486,35.16999999999996,31.25999999999999,1.9500000000000455,1.3395252901313688,-0.7257305583310351,-0.22489168716992036,37.48798293431471,78.21998265344337,1351.9287860162199,195.0660234740056,284.73493717494483,872.1278253672693,0.32648303252454725,24.612680638906358,75.38731936109363,0.44334160463192723,0.5716994443503184,-15.662733935236885,-1863368850.622161,49.11173595535139,0.5827814569536424,6.013807614516713,0.581843735624307,0.11310520656137762,6627853.511607061,0.0033112582781456954,0.0,274419.4843831736,1.8072769621344697e-05,13,2

329,899.1638909023503,611.53,1039.4,67.03799699295429,57.725610929382334,98.11456510719016,4.7264691964592815,36.97231707317073,0,394,59.53786913213622,nan,nan,52.20532294591574,36.91338206720403,84,25.609756097560975,201,61.28048780487805,Figure(432x432),804.6875,1000.0,195.3125,13.16,267157766.76751387,267157766.76751387,899.1638909023503,906.5600000000001,59.44731718751454,0.8141892803552622,74.24999999999989,46.27046001383201,36.97231707317073,0.36335365853658486,37.11999999999989,29.310000000000002,3.909999999999968,1.1579604220054565,-0.5799112832391388,-0.18717187253305922,36.97024383079317,75.64864038885602,1263.9014943311126,105.48402372066951,273.95102562798127,884.466444982462,0.3097359172663847,23.648730494682475,76.35126950531753,0.31538787621873676,0.5615997731167999,-15.852835915948253,-1729185005.701828,36.79706176788306,0.6926994906621392,5.383702416179005,0.5793928457917685,0.13768694136022552,6536425.824274362,0.003395585738539898,0.0,265877.42375220865,2.130543455566018e-05,13,2

339,891.41129759504,611.53,1039.4,67.60196726427866,57.725610929382334,98.11456510719016,4.601138065907011,35.277928994082835,0,394,57.39308769305977,34.109900708388125,58.65886402488047,50.42534389014951,36.08372496705962,82,24.2603550295858,203,60.05917159763313,Figure(432x432),773.4375,1000.0,226.5625,13.56,270487541.0837955,270487541.0837955,891.41129759504,898.74,57.30837460232087,0.8205867071696616,78.14999999999998,45.118815285440036,35.277928994082835,-0.09828402366863913,35.17000000000007,27.360000000000014,3.268802685968865,1.0572336792709027,-0.5089326238723657,-0.025083866062672048,35.70889782185846,72.8890090907715,1949.4189505774352,390.5283758049752,417.6305197550615,1141.2600550173984,0.3659380856440251,26.7902395789403,73.20976042105968,0.25228215767634854,0.5875127987525586,-16.047690671916207,-1804994580.9033859,46.5687704189942,0.6013289036544851,5.896160794351048,0.7899240302465247,0.11645129869845768,6420757.6656663455,0.006644518272425249,0.0,269235.1955727758,1.8612489534452103e-05,13,2

341,888.0953150386191,728.76,988.61,67.81692289860254,60.691273606376626,82.33163181294253,4.2525097544166695,29.944558823529412,0,152,53.915493591916054,59.46456797950065,22.7906808788361,39.766800696273336,26.20575629325762,66,19.411764705882355,190,55.88235294117647,Figure(432x432),773.4375,984.375,210.9375,14.826086956521738,269939570.763147,269939570.763147,888.0953150386191,893.1489551487184,53.836380572642554,0.835424628166307,74.2399999999999,43.414492144018205,29.944558823529412,0.04020588235294106,36.851044851281586,23.504065951814994,2.986304415003474,-0.2782600058743516,-0.3762134201529387,0.006749986507037713,28.160803508440928,70.8571100474671,2101.285416897961,402.60580628522376,603.835599734977,1094.8440108777602,0.5515266044620082,35.5473507754158,64.45264922458419,0.25165562913907286,0.5489064045107823,-19.344390601373487,-1742090557.360004,74.80259140442288,0.3777961888980944,7.4693724322830715,0.8283195360363038,0.0791600845942122,6371926.2885183105,0.006628003314001657,0.0,268917.1730199271,5.521614263114723e-06,13,2

335,898.6149850128608,703.0999999999999,1056.6,67.12922735461127,56.78591709256105,85.33636751528944,5.05925452002321,31.535838323353293,0,101,64.4698415013442,39.803512663696615,50.858219886928474,38.83756595504701,22.70221389937539,73,21.856287425149702,203,60.778443113772454,Figure(432x432),781.25,992.1875,210.9375,13.4,271903702.97674906,271903702.976749,898.6149850128608,902.31,64.37354594124525,0.8036489507553269,83.65768847845743,50.90837977046103,31.535838323353293,-0.30991017964071854,41.00999999999999,27.340000000000032,5.859999999999957,0.2839721400905866,-0.4396864411788412,-0.2464446662304453,27.502634380718213,86.92713056656952,1278.7733076611412,321.00278009138697,560.1522107110319,397.61831685872244,1.408768628005785,58.48501228497409,41.514987715025924,0.23980016652789343,0.446620176484193,-18.911912880188098,-1736810045.7525027,50.98144200362428,0.45,6.475085908375072,0.7151103008675547,0.09901657951263515,6553711.486240025,0.006666666666666667,0.0,270968.89434372203,6.613854613866985e-06,13,3

343,878.4304235902689,703.0999999999999,1011.7,68.63934368657807,59.306118414549765,85.33636751528944,4.915795204823625,28.53076023391813,0,150,60.421400215554534,43.37329059255296,26.771903159011003,36.4580554928911,22.73095551897469,63,18.421052631578945,188,54.97076023391813,Figure(432x432),773.4375,992.1875,218.75,13.72,265921078.11409074,265921078.11409074,878.4304235902689,880.83,60.3332580822442,0.8026732499898005,84.51290842749529,48.336399696522726,28.53076023391813,-0.2969590643274852,41.020000000000095,23.439999999999998,5.859999999999957,-0.19026260599341915,-0.3974821000867956,-0.2750261549505893,25.816654356858947,81.45545755709007,1985.0152191466655,528.4842323840389,761.1822965246997,695.3486902379269,1.0946771126645058,52.25994527013458,47.740054729865435,0.2296173044925125,0.45119770513535357,-18.78814998734037,-1698615383.8192365,48.529490466570024,0.47960033305578686,6.311830416084204,0.4120332938100387,0.10361432268688722,6254201.927543196,0.0033305578684429643,0.0,264965.87733537494,8.028168275924555e-06,13,3

347,874.7348227017496,703.0999999999999,1011.7,68.92678841937133,59.306118414549765,85.33636751528944,4.895398459018604,26.930693641618497,0,150,60.213444309834436,46.4018774578033,11.740853671190205,34.80693967349714,22.083257028329903,55,15.895953757225435,180,52.02312138728323,Figure(432x432),781.25,1007.8125,226.5625,14.458333333333334,266765348.4573065,266765348.45730647,874.7348227017496,874.97,60.12661882226101,0.8151590388657619,82.02999999999997,48.549677772449755,26.930693641618497,-0.20884393063583845,41.00999999999999,21.485000000000014,5.859999999999957,-0.27123984447078353,-0.26843488145814715,-0.189432986664354,24.64742347830081,81.50964524023138,3276.084265910931,1629.969963234862,1072.3310495819912,573.7832530940775,1.8688782633503802,65.1431706679612,34.85682933203877,0.22130470685383977,0.44576399566262787,-19.515779929516878,-1714419996.2719922,62.311387914508884,0.4099173553719008,7.072387490639812,0.44412756817034515,0.08663980543495442,6204225.324363788,0.003305785123966942,0.0,265877.00923058117,6.461198949735153e-06,13,3

349,866.9247114043264,703.0999999999999,996.06,69.50452551365092,60.23733510029517,85.33636751528944,4.588565815056375,26.35505747126437,0,150,56.007885132666175,48.69523314399036,5.774094152714714,33.812689503871624,21.213251199261514,46,13.218390804597702,180,51.724137931034484,Figure(432x432),773.4375,968.75,195.3125,12.03448275862069,263385536.2325405,263385536.2325405,866.9247114043264,865.1999999999999,55.92758704817298,0.8065614093225052,74.22000000000003,44.33841696879764,26.35505747126437,-0.13471264367816058,37.10000000000002,21.480000000000018,5.859999999999957,-0.1219721877307336,-0.14389406219240705,-0.10548250985301928,23.943418495745906,75.50151723512205,2915.9556380943427,1273.9014538257811,852.4352779650063,789.6189063035554,1.0795527705327033,51.91273748038443,48.08726251961558,0.24192212096106047,0.46072228163074475,-20.15553992924643,-1677327924.2502255,70.35969197673934,0.3814262023217247,7.414762896485508,0.5680194791652549,0.0804789193852607,6083887.473503884,0.006633499170812604,0.0,262478.547282989,5.5132923480407e-06,13,3

352,858.465775043577,703.0999999999999,964.81,70.12453409757471,62.188410153294434,85.33636751528944,4.128585600572831,25.122478632478636,0,150,48.62475258756336,31.574219058556125,19.66314807844179,31.99297200596838,19.83765359990952,36,10.256410256410255,183,52.13675213675214,Figure(432x432),773.4375,953.125,179.6875,11.733333333333333,260241040.0602864,260241040.0602864,858.465775043577,859.3425,48.55563421205892,0.7803609365733256,62.987499999999955,38.10066773659296,25.122478632478636,-0.18361823361823376,33.202499999999986,21.49000000000001,6.063547494518616,0.1614027025116953,-0.5008572920440328,0.19477827337636894,22.65436906091672,64.92697968375919,1487.3409636924089,709.3667216121061,362.01023570876396,415.96400637153863,0.8702922131811011,46.53241921490212,53.46758078509786,0.26545002073828283,0.5132783426021882,-21.344984045679553,-1624719055.8770175,62.978686133903196,0.4053156146179402,7.106857910393899,0.6312499034808736,0.0860579056987947,5947068.424847183,0.006644518272425249,0.0,259307.56690430653,5.822805583768151e-06,13,3

349,865.8138670603669,689.43,968.72,69.51693917886467,61.93740193244694,87.02841477742484,4.006650023396831,26.624281609195407,0,150,47.42913668741431,36.58282200305154,59.92823378666661,33.36610500611916,20.139765104103898,41,11.781609195402298,200,57.47126436781609,Figure(432x432),781.25,960.9375,179.6875,12.464285714285714,262404978.69192114,262404978.69192117,865.8138670603669,869.11,47.36113789017096,0.7655041414785071,60.55000000000007,36.63981415397883,26.624281609195407,0.26939655172413796,31.25,23.43999999999994,7.809999999999945,0.8415801298154277,-0.6990516494200174,0.0791973445012101,23.62660077355834,62.77602846400648,811.9616349813268,164.12280671470705,352.4914547717242,295.34737349489563,1.193480919097512,54.41036248396266,45.58963751603734,0.2688796680497926,0.5475879207835642,-20.753244890023076,-1639372690.4779887,51.765435962070654,0.4684385382059801,6.5125866152843335,0.7431688698318386,0.09846255732731028,6044199.534121361,0.006644518272425249,0.0,261339.6674401284,7.021154040004339e-06,13,3

346,870.6956338786193,689.43,972.62,69.10468672438355,61.68904608171742,87.02841477742484,3.7575201239185247,26.584202898550732,0,82,45.3253934587003,26.169035999307237,14.324378669670557,32.33082182884018,18.426784548808936,40,11.594202898550725,199,57.68115942028985,Figure(432x432),765.625,937.5,171.875,11.161290322580646,263015131.84773487,263015131.84773484,870.6956338786193,874.8985185185186,45.25984694073489,0.7505477667464294,59.94527777777785,35.51280213579441,26.584202898550732,-0.09057971014492754,29.361481481481405,23.440000000000055,6.29672000000005,0.8669881616149837,-0.6069996927564646,-0.057739912934251875,22.89445808678665,59.871749375513936,795.26564404434,119.02370939586584,331.85244995527853,344.3894846931956,0.963596348625203,49.073036283646466,50.92696371635353,0.24958402662229617,0.5435911918729781,-22.886254091398726,-1621842742.8472896,80.77859762954074,0.3130724396336386,7.901298749398652,0.85981772078358,0.07183034472012341,6110602.241701006,0.006661115736885929,0.0,262152.92608149967,4.688033388115786e-06,13,3

412,731.880152183901,574.2199999999999,957.04,82.99059094991577,62.69330435509488,104.48956845808229,9.111112286568405,33.99231143552311,0,175,81.84702013159153,59.13881619911523,1.782999370426379,45.85409160969933,30.812830616057287,87,21.16788321167883,246,59.854014598540154,Figure(432x432),554.6875,914.0625,359.375,20.6,223440467.71373796,223440467.71373796,731.880152183901,721.685,81.74763087801199,0.8033490203002138,127.44749999999999,69.12880906224201,33.99231143552311,-0.5369829683698298,63.47500000000002,27.339999999999918,-7.819999999999936,-0.8263513546321661,0.3411030761887394,-0.023192354710990015,32.46103010121104,111.10423454401084,5178.671906572098,143.98627768215152,482.1205765949991,4552.565052294947,0.10590086490954416,9.575981742107254,90.42401825789274,0.1994183631076028,0.49185690615045563,-10.673005278465139,-1676406454.1278436,26.812932517973277,0.9517470881863561,4.688800105188938,0.9073911328791315,0.17643192004558247,4435935.935685828,0.009983361064891847,0.0,222587.3229070427,2.0097144965359247e-05,14,1

408,735.5600980392157,574.2199999999999,914.07,82.52279793603215,65.64048705241393,104.48956845808229,8.874922857690883,34.772776412776416,0,177,79.59837314519292,39.84696192981352,8.853393867599161,46.70884029990642,31.224433938581832,91,22.358722358722357,250,61.42506142506142,Figure(432x432),562.5,914.0625,351.5625,20.4,223326564.1036,223326564.10360003,735.5600980392157,729.5,79.50076627445601,0.8047236836212788,126.95000000000005,67.52328960015379,34.772776412776416,0.13434889434889422,61.51999999999998,27.340000000000032,-9.759999999999991,-0.9323282690674843,0.223840444758776,0.013360971224484593,33.068650956932004,107.60235284886359,5233.272775680582,155.09746675206293,463.85277095058296,4614.322537977936,0.10052456609456045,9.134240996663321,90.86575900333669,0.20375782881002089,0.5033274424616919,-11.868786373452616,-1653576495.7867389,54.692412847292346,0.4816053511705686,6.497539483724517,0.9147409748929309,0.11144974384813976,4471909.680860048,0.010033444816053512,0.0,222481.0532490916,1.1826423797789213e-05,14,1

407,736.1340294840295,544.9300000000001,914.07,82.43740092301151,65.64048705241393,110.10588515956177,8.785321061326917,36.40256157635468,0,228,78.67635518690902,nan,nan,49.29960332677474,33.28713783912474,95,23.39901477832512,257,63.30049261083743,Figure(432x432),562.5,914.0625,351.5625,22.61111111111111,223063704.2707,223063704.27070004,736.1340294840295,730.48,78.5796417450816,0.8056914952451552,119.13999999999999,66.3320403986743,36.40256157635468,0.2838423645320197,60.539999999999964,27.350000000000023,-9.759999999999991,-0.8405970390753787,0.20965208076346284,0.06791063125241771,34.90251592696419,105.64919362191716,5477.631994407211,178.15663741125962,611.7708018145194,4687.704555181433,0.13050540933479146,11.543988047928321,88.45601195207169,0.20418410041841004,0.5033980474366271,-11.292238509236661,-1653556141.3041427,38.73842404087375,0.6666666666666666,5.5205485221574895,0.9150100078438173,0.14140876735312496,4470391.788009322,0.010050251256281407,0.0,222008.8125296608,2.2129666603906776e-05,14,1

407,737.1657002457002,544.9300000000001,914.07,82.22479554546005,65.64048705241393,110.10588515956177,8.292580533216842,35.25270935960591,0,228,74.63800813633877,56.682033588132136,14.480275479808222,47.7785387596759,32.28936724504972,94,23.15270935960591,255,62.80788177339901,Figure(432x432),585.9375,914.0625,328.125,20.35,223430958.6318,223430958.6318,737.1657002457002,730.48,74.54625885994106,0.7989644453931245,110.35500000000002,62.57528871288084,35.25270935960591,-0.4618226600985222,54.690000000000055,27.349999999999966,-7.819999999999936,-0.6921074726879608,0.23445662326792865,0.009527187219885856,33.824632109561804,99.98779315383027,3388.876984662239,106.15887142098859,594.8975024474848,2687.8206107937654,0.2213308061030904,18.122101317438496,81.8778986825615,0.21711899791231734,0.5301826865444251,-10.860029113497705,-1660626986.2977982,29.004815709852508,0.8595317725752508,4.836687286931196,0.8788602174907711,0.1707657678214205,4470151.704752436,0.010033444816053512,0.0,222589.26787822944,2.786743317480517e-05,14,1

406,740.010763546798,544.9300000000001,914.07,81.7839923231367,65.64048705241393,110.10588515956177,7.608410731315127,33.94143209876543,0,228,69.07023617730286,37.27241593403906,58.32004599192294,45.59600347983727,30.48391727289083,93,22.962962962962962,247,60.98765432098765,Figure(432x432),609.375,890.625,281.25,16.24,224264200.14489996,224264200.14490002,740.010763546798,734.38,68.98512186748798,0.7913382615016508,99.12250000000006,57.691381009002875,33.94143209876543,0.3375802469135806,48.83000000000004,27.339999999999918,-3.909999999999968,-0.5874171328576092,0.22904171692160888,0.06441311979243036,32.28023636358496,92.1920896361932,3897.697432658106,95.22866469761149,792.1890670486416,3010.279700911853,0.2631612825906766,20.83354566179758,79.16645433820241,0.24363788068418857,0.5483676232141375,-11.788708881228121,-1631879609.841654,34.67019454655373,0.7284878863826232,5.263542263779798,0.914528453691077,0.14996677594593427,4485804.103173758,0.010025062656641603,0.0,223326.34259701968,2.3736865163495442e-05,14,1

404,742.3880940594061,544.9300000000001,910.1700000000001,81.41233969967017,65.92175088170342,110.10588515956177,6.962503928905959,33.145434243176176,0,228,63.66628406878799,nan,nan,44.50927561901038,29.74308270260914,84,20.843672456575682,242,60.049627791563275,Figure(432x432),632.8125,875.0,242.1875,14.428571428571429,224294111.6873,224294111.68730003,742.3880940594061,737.315,63.58744034309914,0.7781182053949401,89.83999999999992,52.590762547789424,33.145434243176176,0.03392059553349894,44.91999999999996,27.339999999999918,-3.8999999999999773,-0.41710656728068773,0.2362766631947907,-0.035547605463606725,31.511922437835853,84.3432878095645,2312.4096151904887,156.48922064927592,620.802711221568,1535.1176833196448,0.40440072964249957,28.795252032191886,71.20474796780812,0.23716075156576202,0.5596185912667523,-12.96517388518899,-1605839101.2091408,50.349662027565934,0.5652173913043478,6.058654012692062,0.9344893925727383,0.11327416486965994,4499915.050410949,0.010033444816053512,0.0,223647.0443228879,1.908664557810437e-05,14,1

404,741.8659158415842,539.07,910.1700000000001,81.38077989413972,65.92175088170342,111.30279926540152,6.4894182434987355,32.71900744416873,0,287,58.13520730964866,nan,nan,45.24336613971826,31.286700988021643,80,19.851116625310176,241,59.801488833746895,Figure(432x432),632.8125,890.625,257.8125,16.16,223709495.0219,223709495.0219,741.8659158415842,739.265,58.063213217249086,0.7676443738437698,80.55999999999995,47.22677556121948,32.71900744416873,-0.08238213399503734,40.03499999999997,27.339999999999918,-1.9499999999999318,0.001337177508616616,0.038257363086632815,-0.0035369319396786735,32.03160409403895,75.71909268496555,2117.5230443879664,220.4872818117689,390.1130317427954,1506.922730833402,0.25888058077605863,20.564347780825027,79.43565221917498,0.23745819397993312,0.5890093502353347,-13.173282071298882,-1576585565.1950846,42.39037555553478,0.6728033472803346,5.576086442557269,0.9271343341376611,0.12869590086363197,4474312.173335248,0.0100418410041841,0.0,222855.50613965857,3.1199343614460694e-05,14,1

398,762.1422204024178,445.28000000000003,1419.8,79.94626087057478,42.25947316523454,134.74667624865253,9.821943696691942,68.26614609571789,0,773,99.26925877989568,75.25846640046385,0.6217352788229947,107.32677916018248,82.9221981768176,193,48.614609571788414,294,74.05541561712846,Figure(432x432),609.375,882.8125,273.4375,16.583333333333332,235094775.25799903,235094775.25799903,762.1422204024178,750.6598989490881,99.144470221729,0.8295707913764655,108.88250000000005,69.88649014012917,68.26614609571789,-1.7266498740554155,55.39989894908808,46.88000000000011,7.810000000000059,8.397967429936791,1.6316292640027776,0.03762247166338789,75.97742149850808,118.05169587878792,2289.4627222137124,1229.2779150594365,479.8386852394973,580.3461219147782,0.8268146664895951,45.25990959325945,54.740090406740514,0.38661710037174724,0.6385545459303692,-6.1104686224310925,-2051023813.688773,10.707813615309686,2.272952853598015,2.801577615850361,0.7098331238327005,0.38128686082269,4815184.675004981,0.006617038875103391,0.033085194375516956,232972.93856858055,0.0002640775037358205,14,2

406,742.59664525525,474.58,1290.8999999999999,81.82809129277085,46.47920055775041,126.42757806902947,9.319724046029677,61.623037037037044,0,624,84.39678484597296,69.08672286795316,15.166354893075008,91.28154922086516,67.42512580834861,188,46.41975308641975,308,76.04938271604938,Figure(432x432),578.125,875.0,296.875,18.454545454545453,226773350.6864034,226773350.68640336,742.59664525525,738.23,84.29278383931185,0.8134680937263414,105.45999999999992,64.37173439777033,61.623037037037044,0.02412345679012327,52.73000000000002,44.90999999999997,7.809999999999945,3.9857980516814893,0.7027813266922072,-0.08716394369627746,64.62563424166552,100.34521405397156,2150.3870089618576,1094.4603218158209,411.6769813165349,644.2497058295017,0.6390022030145617,38.987269317836564,61.01273068216342,0.4187785625259659,0.5484703580794821,-8.486331743885112,-1829306478.767899,22.965777824324523,0.9850249584026622,3.997158295069652,0.4031052321380729,0.22157591068180565,4542624.210174791,0.0033277870216306157,0.0,225419.15237794552,0.00017134853538691377,14,2

403,745.9191777019948,421.85,1290.8999999999999,81.39997552480735,46.47920055775041,142.23065070522696,9.267353873775578,58.05074626865672,0,624,80.62831055016406,51.41293434510273,11.1341902453281,88.0220396655176,66.24883399832257,177,44.02985074626866,299,74.37810945273633,Figure(432x432),625.0,898.4375,273.4375,16.791666666666668,226840725.75823274,226840725.75823277,745.9191777019948,740.18,80.52821329177017,0.807266366383922,95.69000000000005,59.79947138058533,58.05074626865672,0.05343283582089585,48.819999999999936,42.964999999999975,9.759999999999991,5.60781131488557,0.5645341355637395,-0.28763132000527564,62.31852854436386,95.4895278258967,1477.7570568071683,664.3272509145897,378.23339880154805,435.19640709103066,0.8691096540289966,46.49859103533975,53.50140896466027,0.566902876198416,0.5550080441223249,-8.944969030812658,-1786091664.8635364,23.461152136764145,0.9649415692821369,4.045357364113955,0.4034741212594103,0.21480238017954228,4568253.238039281,0.00333889816360601,0.0,225428.6396775339,0.00015132314267533026,14,2

412,733.9716253735634,421.85,1290.8999999999999,82.57726341826262,46.47920055775041,142.23065070522696,8.691163054114883,54.04279805352798,0,624,73.20912480331016,62.22689361407114,12.64857992124356,85.48240496328714,66.31226586398677,160,38.929440389294406,293,71.28953771289538,Figure(432x432),625.0,859.375,234.375,14.206896551724139,224153096.62093213,224153096.62093213,733.9716253735634,732.37,73.12022480111443,0.7954017883164859,80.5575,52.889603970608796,54.04279805352798,-0.004744525547444951,41.00999999999999,37.110000000000014,7.810000000000059,8.941991885305434,0.7376136062340665,-0.1496275671566728,60.518856880017594,84.00368962652314,1932.735144593479,747.2936614094157,405.3339873927369,780.1074957913263,0.5195873512041744,34.19266097420692,65.80733902579308,0.626605884790717,0.602740315307877,-9.240350245642878,-1742149335.2739344,22.20618790652785,1.0024896265560166,3.9352984701416047,0.5273354293622794,0.22321012377254637,4399758.116089914,0.0033195020746887966,0.0,222696.28393679357,0.00016796301274299815,14,2

418,726.0700223305862,421.85,1290.8999999999999,83.3835768763006,46.47920055775041,142.23065070522696,8.294953317786126,49.56978417266187,0,624,68.42373567907481,53.83433002331471,19.998053985289765,81.707357503117,65.03130340773063,145,34.77218225419664,281,67.38609112709833,Figure(432x432),625.0,843.75,218.75,13.933333333333334,222312582.89372844,222312582.89372844,726.0700223305862,722.61,68.34184009535403,0.7917798565486956,77.33030995633317,49.01280741699981,49.56978417266187,-0.30911270983213424,39.059999999999945,33.200000000000045,5.8599999999999,12.207120603106441,0.8994080630431894,0.017834157472526348,57.844813028101264,77.57314492982607,1668.879937612106,462.7144901398345,453.80461198411206,752.3608354881594,0.6031741560413189,37.623744979193205,62.37625502080678,0.6372265786215435,0.6533009013636314,-9.091094360257964,-1736074975.4852748,20.789464245642872,1.0743801652892562,3.8506597745845106,0.6805138490694592,0.23803125112782153,4294869.760774018,0.006611570247933884,0.0,221037.34359226783,0.00017029304810260425,14,2

419,725.4075533892686,396.46,1238.2,83.63042837864025,48.45743821676627,151.339353276497,9.31216852021981,50.46055023923446,0,841,75.25152969783882,56.091684777819964,72.35077152778103,88.4156264454309,72.68903831418172,139,33.25358851674641,283,67.70334928229666,Figure(432x432),617.1875,843.75,226.5625,14.448275862068966,222851601.0151912,222851601.01519123,725.4075533892686,718.7,75.16167709302026,0.8024622058014232,82.01999999999998,53.35790995485045,50.46055023923446,0.299019138755981,41.00999999999999,33.200000000000045,3.983948611838514,8.054792458610748,0.6997391906949882,0.19083977236890795,62.59384934165387,86.06738911064848,1398.7451075225185,220.34696675424755,358.3854316963267,820.0127090719442,0.43704863074857975,30.41293254779518,69.58706745220482,0.580618556701031,0.6630768229059343,-8.038173742561414,-1836650372.2503283,20.1450111286669,1.1230388109000826,3.738147613011676,0.7583867900627781,0.24430574324410576,4304501.280789763,0.0033030553261767133,0.0,221258.3903819076,0.00022511140238501025,14,2

416,726.1594640070915,419.93,1177.7,83.62332534287481,50.94676063513628,142.88095634986783,9.323712822897425,35.80113253012048,0,570,80.06160142345503,43.40157839181734,67.53052895802972,62.814955888183526,51.67622634819014,75,18.072289156626507,241,58.07228915662651,Figure(432x432),601.5625,875.0,273.4375,17.333333333333332,222020039.85083222,222020039.85083222,726.1594640070915,716.81,79.96531563825923,0.7933950042744458,97.65999999999997,61.5201537221012,35.80113253012048,-0.05178313253012037,48.82000000000005,25.389999999999873,-7.82000000000005,2.7858044987620305,0.6297872503685537,-0.04679822344220436,44.47047737950246,104.12538925072745,3220.131479789305,327.4260411058026,345.10973583255634,2547.595702850946,0.13546487594022602,11.930344901955142,88.06965509804485,0.2422231439236831,0.5904612195787057,-8.913419699866571,-1808498032.439708,32.08632369815518,0.8305647840531561,4.777075050489689,0.7489265331553,0.1700651517444574,4352166.202840619,0.006644518272425249,0.0,220926.7560634674,6.87023601586028e-05,14,3

419,719.6632002816733,433.59999999999997,896.5,84.06749482466566,66.92693809258226,138.37638376383765,7.817189819894912,29.526100478468905,0,191,65.08107054256578,46.642272996493034,21.775684794587114,39.37075643551626,26.074746205044185,68,16.267942583732058,230,55.02392344497608,Figure(432x432),601.5625,867.1875,265.625,16.115384615384617,218776894.1713775,218776894.17137748,719.6632002816733,714.85,65.0033617739054,0.7830668648841596,94.07562600020526,52.84927211946508,29.526100478468905,-0.0981100478468902,44.92999999999995,23.43999999999994,-6.849020339056153,0.3039575750305521,0.10307379614058564,0.033600396554089994,27.872602815492804,87.71664322249586,2220.5467833762004,261.94440201959435,444.4966651195377,1514.1057162370682,0.293570429298836,22.69458412542425,77.30541587457573,0.22600747818861652,0.5598428224454042,-12.6439327283818,-1592292956.9883687,54.99643830393007,0.49584026622296173,6.433627468383871,0.879189947526276,0.10803813245406081,4236577.081225712,0.0066555740432612314,0.0,217983.75230326262,1.3288099641940355e-05,14,3

418,716.0113434161881,593.76,896.5,84.35170348306123,66.92693809258226,101.05092966855295,6.761301337097032,26.861582733812956,0,123,59.10171560872818,nan,nan,35.34615069716627,23.001619637419754,58,13.908872901678656,210,50.35971223021583,Figure(432x432),625.0,820.3125,195.3125,11.942857142857143,215753584.2830258,215753584.2830258,716.0113434161881,705.1235194457834,59.03097744381157,0.7770620280476632,85.94000000000005,48.71974897113967,26.861582733812956,0.34191846522781755,41.05351944578331,21.479999999999905,-5.337736107818955,-0.2654253181544388,0.5363191172225836,-0.053509753417942785,25.0223542649377,79.7490273472343,2301.2377274551163,495.1046566355457,569.2267614469151,1236.9063093726556,0.4602020032831915,31.5163246077221,68.48367539227792,0.22445561139028475,0.5214556243429155,-13.854792370948305,-1480990286.4518871,35.513310821906984,0.6437552388935457,5.406433808874317,0.8669238384866963,0.139676988165268,4179020.047304226,0.006705783738474434,0.0,214904.0939277959,1.1361763644722837e-05,14,3

419,714.4159742110139,593.76,896.5,84.47051152255334,66.92693809258226,101.05092966855295,6.333739739864363,25.629330143540674,0,111,55.17829228711614,nan,nan,33.117221725787026,20.998635623911753,57,13.636363636363635,207,49.52153110047847,Figure(432x432),617.1875,812.5,195.3125,12.696969696969697,215126148.3499024,215126148.3499024,714.4159742110139,705.09,55.11240773551507,0.7638965006583143,82.04000000000008,45.34756304071668,25.629330143540674,0.079425837320574,39.059999999999945,19.54000000000002,-1.9499999999999318,-0.07903052020552304,0.5693757319907521,0.013473925449857177,23.445406245843156,74.42849457977918,2067.908361278853,626.294806120412,433.25990651724885,1008.3536486411923,0.4296705893820968,30.053817471883526,69.94618252811648,0.21096693177061532,0.5258743913287159,-15.449441602720766,-1459970416.0487754,66.08431840340252,0.4157585917854149,7.096527461436613,0.8663071861884011,0.09149566025911572,4151484.348688477,0.006705783738474434,0.0,214367.2350623322,6.863862969690987e-06,14,3

418,716.0410363502748,611.34,896.5,84.20474908404664,66.92693809258226,98.14505839630974,5.776318284425818,25.2458273381295,0,111,51.21292542362411,nan,nan,32.525090642415954,20.53145421222486,50,11.990407673860911,204,48.92086330935252,Figure(432x432),617.1875,812.5,195.3125,12.294117647058824,215408464.55390236,215408464.5539024,716.0410363502748,708.99,51.1516292611157,0.7508302127602766,74.22000000000003,41.64985166324007,25.2458273381295,-0.0749400479616307,37.110000000000014,19.529999999999973,-1.7597486731541494,0.16970622300230254,0.75605978476639,-0.002475814353602531,23.02627712215715,68.66817328854025,1604.0868783425854,515.6360988392419,251.40486344060528,837.0459160627381,0.3003477570539416,23.09749491431487,76.90250508568512,0.23096234309623428,0.5434570984680199,-15.86940661411546,-1450653573.7841349,64.96412937450715,0.4254606365159129,7.005845069198696,0.8410463776816784,0.09279710652294583,4162714.378660022,0.006700167504187605,0.0,214844.66132467543,7.590935558696257e-06,14,3

418,716.9195344207642,611.34,1246.1,84.07484690136195,48.150228713586394,98.14505839630974,5.451405242338649,25.95757793764988,0,595,51.6626841801905,nan,nan,49.09882281989439,41.72617627831523,41,9.832134292565947,189,45.32374100719424,Figure(432x432),617.1875,828.125,210.9375,13.483870967741936,215953959.40725243,215953959.40725243,716.9195344207642,712.9,51.60084970658965,0.7370037357287443,69.8225000000001,38.18067817329711,25.95757793764988,-0.14050359712230223,33.42009266301318,19.52999999999986,-0.9315420111955746,24.92560537896543,2.8017245464049876,0.06292989499969293,34.75967169041366,64.26376192986889,930.7267459803566,319.15481822701145,205.9251228744803,405.6468048788649,0.5076463573674003,33.671447875470925,66.32855212452908,0.31438127090301005,0.6207322226412973,-12.598132785387548,-1532945261.211246,37.57402486562319,0.6962343096234309,5.209649070230572,0.7370787219101474,0.1451511494211492,4165397.4472812857,0.0033472803347280333,0.0,215109.2518544965,3.559905738925356e-05,14,3

416,722.7999442307693,585.94,2166.0,83.6647552063015,27.700831024930746,102.39956309519745,6.160318927321383,29.579397590361438,0,1488,87.82464157295014,45.320929443091195,42.82616619699953,88.09479741415164,83.08059233187609,41,9.879518072289157,193,46.50602409638554,Figure(432x432),601.5625,812.5,210.9375,13.419354838709678,220535904.48405942,220535904.4840594,722.7999442307693,714.85,87.71901959658389,0.7283831307976061,66.89749999999992,41.69572214312131,29.579397590361438,-3.327301204819277,33.204999999999984,19.529999999999973,0.0,176.36826974758108,11.201917331625886,0.011383725695921143,62.32311486444779,107.43446694812225,902.919894813703,133.57429021001076,265.3084880937499,504.0371165099424,0.5263669666448394,34.484955331670015,65.51504466832999,0.4900000000000001,0.7012632700376811,-4.808001286160773,-1939973312.363204,6.007985662235972,2.97581317764804,1.9792928926562117,0.908791135359164,0.568340584731452,4297711.390107643,0.010008340283569641,0.11009174311926605,218076.74215362908,0.00048548096470626495,14,3

487,617.3615400410677,527.35,1298.8,98.15405067344345,46.19648906683092,113.77642931639328,9.116962710307563,18.281378600823047,0,697,67.44381241001324,40.59996597816817,56.63782731986223,47.38044938744649,43.75657395737575,27,5.555555555555555,123,25.308641975308642,Figure(432x432),523.4375,671.875,148.4375,11.068181818181818,187823529.60289997,187823529.6029,617.3615400410677,599.61,67.37453266660228,0.7310284497076155,74.22000000000003,49.13647019635784,18.281378600823047,-0.00401234567901244,31.25,9.769999999999982,-1.9499999999999318,20.618219907554558,2.824351926603281,-0.21772533970669164,33.53755836534916,89.28923699799942,2730.9828542678515,171.16627638785837,709.6096737891651,1850.2069040908282,0.3835299026396508,27.721114079855464,72.27888592014455,0.27,0.554568318440359,-8.79033520707348,-1535965984.1250038,34.07096520891825,0.7906588824020017,4.974133852828207,0.5593207304645671,0.16505608952142403,3151245.3350624223,0.003336113427856547,0.0,186998.42368834093,5.237917138129299e-05,15,1

495,605.8136767676768,521.49,1298.8,99.82611311527849,46.19648906683092,115.05493873324512,8.21671832701351,15.893765182186234,0,697,60.16151523020422,nan,nan,45.4528638613496,42.62662616735319,16,3.2388663967611335,101,20.445344129554655,Figure(432x432),523.4375,679.6875,156.25,10.76086956521739,183458041.9345,183458041.9345,605.8136767676768,591.8,60.10071530034141,0.711360962304,56.64999999999998,40.87660524436284,15.893765182186234,0.10279352226720642,25.3900000000001,9.759999999999991,-1.9499999999999318,34.94316997068847,3.7923421134149757,-0.07766512321860379,32.17252585078787,78.7638521783221,1969.6165477745976,350.4052887598832,397.8677668095294,1221.343492205185,0.3257623832679234,24.57170209226626,75.42829790773374,0.15037593984962405,0.5745042874388995,-9.159479926852862,-1466589614.0303826,32.19660165189735,0.8193979933110368,4.843918574844037,0.655350805280241,0.1695693946976108,3018263.2924814518,0.0033444816053511705,0.0,182737.41324546846,5.400893401954212e-05,15,1

501,599.3926746506986,511.71999999999997,808.6,100.80729290641665,74.20232500618353,117.25162198077074,8.098853271974953,13.081979999999998,0,119,52.70523722394138,27.544655905264264,105.33314342568924,19.862867461673304,14.96138326017068,18,3.5999999999999996,100,20.0,Figure(432x432),531.25,640.625,109.375,8.491525423728813,181383981.8063,181383981.8063,599.3926746506986,583.99,52.652610913040355,0.7068542512762165,52.73000000000013,39.82738969167454,13.081979999999998,0.37110000000000015,23.440000000000055,7.810000000000059,-1.9499999999999318,1.8529929895634334,1.3261727814240991,0.035122831309493105,14.056780586461176,73.19898210499898,1886.8794379332558,166.75884588620627,358.4831869811634,1361.6374050658862,0.263273604006066,20.840584586836805,79.1594154131632,0.1702127659574468,0.4972291406174107,-12.832506655813104,-1266416800.1182396,25.875406065818048,1.0025062656641603,4.651074569405167,0.7859494577993085,0.16712260566327347,2940514.60358454,0.003341687552213868,0.0,180798.87434917336,1.2727859268050154e-05,15,1

498,602.5876305220884,511.71999999999997,808.6,100.37807406761863,74.20232500618353,117.25162198077074,8.664849479581724,15.098470824949699,0,119,56.609818484971676,28.32304285525503,24.183791746612414,22.105317795704604,16.16189409199244,23,4.627766599597585,127,25.553319919517104,Figure(432x432),523.4375,640.625,117.1875,9.222222222222221,182422424.28399998,182422424.28399998,602.5876305220884,584.965,56.552952756420346,0.7196910280982598,63.96249999999998,44.30505153142692,15.098470824949699,0.15718309859154908,26.36500000000001,9.769999999999982,-1.9500000000000455,0.941405067002747,1.1500250540020418,0.04392006334552321,15.646173494387368,78.51458687904058,1561.1940513288,104.58453292253449,367.7659170067905,1088.843601399475,0.3377582570482173,25.248078662095924,74.75192133790407,0.15358931552587649,0.5005926458953122,-13.553982513414294,-1294253901.4742198,54.25233528117811,0.3609022556390977,6.742805882900193,0.7109701299754931,0.10002286974205768,2982937.2453505215,0.003341687552213868,0.0,181930.33033813426,3.8175139598586295e-06,15,1

