nni_counter,nni_mean,nni_min,nni_max,hr_mean,hr_min,hr_max,hr_std,nni_diff_min,nni_diff_max,sdnn,rmssd,sdsd,nn50,pnn50,nn20,pnn20,tinn_n,tinn_m,tinn,tri_index,abs_energy,autocorr,mean,median,std,entropy,interq_range,mean_abs_dev,mean_abs_diff,mean_diff,median_abs_dev,median_abs_diff,median_diff,kurtosis,skewness,slope,sd1,sd2,total_power,vlf,lf,hf,lf_hf,lfnu,hfnu,bw,spec_ent,spec_decr, spec_dist,spec_kurt, spec_roll_95,spec_skew,spec_var,spec_centroid,energy,fundamental_freq,med_freq,auc,human_energy,ID,session
501,599.370998003992,519.55,1017.6,100.53394388406193,58.9622641509434,115.48455394091042,6.155631406937819,0,347,42.62507615244805,28.880744793027763,23.287406440121558,23,4.6,135,27.0,539.0625,664.0625,125.0,9.10909090909091,180890490.7759,180890490.7759,599.370998003992,591.82,42.582514907533294,0.6571211808220847,39.059999999999945,27.85203357755546,17.1137,0.1445399999999997,19.52999999999986,11.719999999999914,0.0,22.40719410393671,3.2749052838860258,0.0014238957940696,20.441966931247997,56.70908412226171,938.7556536487676,78.77394381144973,282.14178865957643,577.8399211777413,0.48826981023485,32.80788247379692,67.19211752620308,0.250208507089241,0.5869386287327529,-13.135404174195802,-1278580880.8402078,41.9309146878664,0.6210350584307179,5.699896770478947,0.9147093158753776,0.131890146859943,2917336.433313428,0.006677796327212,0.0,180411.23672672745,1.8685487109210757e-05,10,1
505,593.2002772277228,498.06,1017.6,101.69863133880467,58.9622641509434,120.46741356463076,7.158323167959052,0,347,46.7949323577611,28.30762328966393,23.51656692431033,25,4.9603174603174605,122,24.20634920634921,507.8125,656.25,148.4375,10.306122448979592,178806359.206,178806359.206,593.2002772277228,587.9100000000001,46.74857778238414,0.6812075923713541,44.92999999999984,31.296547240466627,15.792083333333332,-0.1899007936507939,21.49000000000001,9.759999999999993,-1.9500000000000453,16.163524692130515,2.504627977907913,-0.0950436217534786,20.035948777994843,63.07211860481967,1053.0228290444115,173.06760769623023,304.6533013760184,575.3019199721629,0.5295537713323808,34.62145504509404,65.37854495490595,0.2674467195988299,0.5663560080800504,-12.338237852700624,-1283027329.6116662,37.0447795892488,0.6627615062761506,5.424677257631961,0.7676797606829943,0.141895016280584,2867414.034489312,0.006694560669456,0.0,178382.4496209913,1.9992338847976964e-05,10,1
511,586.6976320939334,498.06,1189.5,102.968851281507,50.44136191677176,120.46741356463076,7.626672845558903,0,619,56.648731969866645,56.779941359465255,53.98175099313715,21,4.117647058823529,96,18.823529411764707,515.625,656.25,140.625,9.641509433962264,177530041.1841,177530041.18409997,586.6976320939334,580.0999999999999,56.59327553761131,0.6769698689028433,42.97000000000003,32.17395981173478,17.766431372549015,-0.0650980392156861,21.489999999999892,7.810000000000002,-1.949999999999932,45.22572438693234,5.180010906325137,-0.0682495125618734,40.188875374602624,69.3037658696282,1134.487734720749,278.8345881813383,266.3804558513515,589.2726906880592,0.4520495520339057,31.131826830614276,68.86817316938574,0.277360066833751,0.6144924825435908,-8.572830027245132,-1431852289.8611312,25.032420666443564,1.0267558528428091,4.237221446659502,0.6605372838324985,0.2076171968973674,2820601.560954567,0.0033444816053511,0.0,176734.89080508097,0.0001289473448704,10,1
511,585.9790215264188,498.06,1287.1999999999998,103.1834809709431,46.6128029832194,120.46741356463076,7.790777923791981,0,705,63.208848336766266,70.85177208405572,68.09453378497682,21,4.117647058823529,85,16.666666666666664,507.8125,656.25,148.4375,10.428571428571429,177500425.22399998,177500425.22399998,585.9790215264188,578.14,63.1469698605174,0.6739514187180949,45.89999999999998,32.547062626138846,19.80403921568627,0.1110588235294115,23.42999999999995,7.809999999999974,0.0,57.82986540365973,6.327699011514276,-0.0361150605790265,50.14889666157684,73.99868363523183,1470.7977349143398,373.7000400373011,467.3618814533493,629.7358134236894,0.7421554745512082,42.59984171288689,57.4001582871131,0.4818067754077791,0.6298032996109033,-7.400850246316657,-1517780663.1455102,23.298525297685256,1.0418760469011723,4.011973469161773,0.7133218815282085,0.2255112263229529,2825545.6798538934,0.0067001675041876,0.0033500837520938,176455.74265069212,0.0001657231288535,10,1
509,589.463438113949,498.06,1287.1999999999998,102.62304316232571,46.6128029832194,120.46741356463076,8.075886828757024,0,705,64.70827030171311,71.10663840179163,68.18545983305624,21,4.133858267716536,94,18.50393700787401,507.8125,656.25,148.4375,10.387755102040815,178987854.1451,178987854.1451,589.463438113949,582.05,64.64467493470103,0.6828526602204134,46.88,34.656569953026285,20.39728346456693,0.0192125984251968,23.44000000000005,7.810000000000059,0.0,51.47335537097639,5.850802068042251,0.0659182132454181,50.32954572284247,76.42811863582305,1365.2523602502538,530.8527729745903,423.3639722989447,411.035614976719,1.0299934041553165,50.73875619728422,49.2612438027158,0.5609348914858097,0.6200056817005238,-7.394984479054406,-1537029185.386326,23.519008245694376,1.035923141186299,4.027578051177887,0.6419558342689131,0.2231161449047092,2862891.561619002,0.0033416875522138,0.0033416875522138,177961.63282268483,0.0001613045470067,10,1
505,594.4844554455447,498.06,1287.1999999999998,101.8096365020084,46.6128029832194,120.46741356463076,8.341043489104983,0,705,66.90694134207956,77.38266068187593,74.02721173669546,28,5.555555555555555,111,22.02380952380952,507.8125,671.875,164.0625,11.22222222222222,180729118.2771,180729118.2771,594.4844554455447,587.9100000000001,66.84066401888627,0.6975928560875096,50.77999999999997,36.96131908636409,22.779841269841263,0.0,25.3900000000001,9.759999999999993,0.0,48.81110102270965,5.6340384696778525,0.1521855834651794,54.77216856310663,77.15625153154852,1418.2788584599816,640.290763162246,310.4388238721999,467.5492714255357,0.6639702868655672,39.902773030658665,60.097226969341335,0.557363370880267,0.6245803345362595,-7.284414949933721,-1548579218.5729978,21.864714208585244,1.0726817042606516,3.901381985304612,0.6344274627033005,0.2391698325223371,2911534.763407705,0.0033416875522138,0.0033416875522138,179545.85861638476,0.0001764251587668,10,1
463,649.0229125411348,343.75,1269.5,93.02959394456214,47.262701851122486,174.54545454545453,7.5253231595808865,0,642,53.88161763272752,53.1758423851015,46.57352398622668,42,9.090909090909092,190,41.125541125541126,570.3125,726.5625,156.25,9.645833333333334,196371124.7526121,196371124.75261217,649.0229125411348,640.63,53.823398687975946,0.7058063804781988,54.690000000000055,36.32758295386855,25.75406926406926,0.0,27.34999999999991,17.579999999999927,1.9599999999999227,38.80812421649296,3.0877168849613152,-0.0648808690093774,37.64175864801921,66.25372022251412,1359.960283323407,238.2945868175398,213.2382022787978,908.4274942270694,0.2347333206380223,19.01085171304268,80.9891482869573,0.4866666666666667,0.6068119743470953,-10.41108930022322,-1467743850.874464,25.649773151176937,0.9741451209341118,4.279671377652189,0.5798449277419169,0.1961624360845926,3428447.257832548,0.0033361134278565,0.0,195660.16199374525,8.828952353224842e-05,10,2
465,647.0086204441836,343.75,1269.5,93.29622494090432,47.262701851122486,174.54545454545453,7.380542148591075,0,570,52.9049757777244,43.8409390796449,36.66874198286333,41,8.836206896551724,187,40.30172413793103,578.125,710.9375,132.8125,8.61111111111111,195957078.56041217,195957078.5604121,647.0086204441836,638.67,52.848058089618256,0.7024384715685287,52.72999999999991,34.71827385064476,24.09002155172414,-1.3848060344827586,25.389999999999876,15.63000000000011,0.0,42.23882177362248,3.3299428692805417,-0.1548011276103373,31.018199157970223,68.08629998083099,787.5641385798162,166.75809709355082,287.2078025058468,333.5982389804187,0.8609392045462957,46.26369321700631,53.736306782993694,0.4962531223980017,0.6460479792073012,-8.389604841411114,-1412391972.8038576,8.534959553572925,2.606666666666667,2.4786071506875778,0.6035654240949808,0.4214235671621078,3398180.724926276,0.0033333333333333,0.0,194970.65739877784,0.0001739421991326,10,2
471,637.0872155128352,343.75,1228.5,94.69414460218589,48.84004884004884,174.54545454545453,7.138790901834265,0,667,49.3546800188858,51.73283802331141,46.292141415323066,32,6.808510638297872,164,34.8936170212766,578.125,703.125,125.0,7.983050847457627,192314402.28671217,192314402.2867121,637.0872155128352,632.81,49.30225867640474,0.688634745435245,50.77999999999997,32.13803137512997,23.192319148936168,-0.1454255319148936,23.44000000000005,14.649999999999975,0.0,45.04895407680539,3.367460173114619,-0.0773278491284646,36.619473672730464,59.420392353681166,764.6412357083913,29.57700992583837,274.7324143176571,460.3318114648958,0.5968138796304061,37.37529384254494,62.624706157455066,0.5242070116861436,0.6522561396347119,-10.48685498925566,-1423041613.5438557,23.81748949344433,1.0225563909774436,4.11201119769985,0.7478624987913969,0.2065482663940094,3294676.083569336,0.0033416875522138,0.0,191577.0014544956,0.0001012020787879,10,2
471,636.7158174097665,439.45,1228.5,94.6723593112934,48.84004884004884,136.5343042439413,6.186750485160059,0,667,47.260132221303614,53.14672931631142,47.75451765057052,27,5.74468085106383,171,36.38297872340426,570.3125,710.9375,140.625,8.263157894736842,191996466.5837,191996466.5837,636.7158174097665,632.81,47.20993557174728,0.6860117993155543,48.82000000000005,31.07153979652093,23.429319148936163,0.0831063829787235,23.42999999999995,14.649999999999975,0.0,51.595983861368055,4.253076031618746,0.0299767583683432,37.62040977482116,55.24260098442814,917.0058338695394,49.44100208417848,396.7782709716213,470.7865608137396,0.8427986353004697,45.734711278590176,54.26528872140983,0.5614035087719298,0.6608928579446661,-10.75886108459156,-1405929398.5531774,24.09426715138364,0.9933110367892976,4.097747943997717,0.7514430792618891,0.2039380252535091,3284986.479710081,0.0033444816053511,0.0,191176.51119661564,0.0001205916338279,10,2
470,637.4887021276595,439.45,1228.5,94.56031996123951,48.84004884004884,136.5343042439413,6.202187052587793,0,667,47.4265415265448,53.06914459353124,47.657899792231525,26,5.543710021321962,174,37.10021321961621,562.5,703.125,140.625,8.867924528301886,192059078.14850003,192059078.14850003,637.4887021276595,632.81,47.376060893264814,0.6911983229008618,46.870000000000005,30.968793390674502,23.449978678038374,-0.0624733475479745,23.42999999999995,15.620000000000005,0.0,50.72495349151314,4.204657816241114,0.0802152879533948,37.565595992565065,55.564194226691846,1005.5171265154644,38.51940432005777,480.12766527025366,486.8700569251531,0.9861515581847828,49.65137499809245,50.34862500190756,0.5917258671124113,0.6562247111868869,-10.834107286977265,-1401470117.2543764,23.417819068199595,0.9941422594142258,4.053615651139597,0.7167909564776084,0.2042833031721848,3293713.5675376635,0.003347280334728,0.0,191347.8617108745,0.0001198203041703,10,2
469,640.1222601279318,439.45,1228.5,94.1111381097666,48.84004884004884,136.5343042439413,5.71246079157492,0,667,44.62123386402009,51.026131431736914,45.74606159648635,20,4.273504273504273,175,37.39316239316239,570.3125,703.125,132.8125,8.228070175438596,193107615.72180003,193107615.7218,640.1222601279318,636.7199999999999,44.57363786768616,0.6774465190738697,44.91999999999996,28.465931142338874,22.703205128205123,0.0834615384615383,21.48000000000013,15.629999999999995,0.0,63.88115011289213,4.904347041475792,0.0362863424286094,36.11948511719056,51.74448587013109,1151.5036478266834,66.85855346355592,520.0510297498994,564.5940646132282,0.9211060872667112,47.94665392879119,52.053346071208814,0.6441385064664163,0.6653201372429112,-11.386954077546642,-1387203933.8874638,24.9061239237127,0.9757727652464494,4.188015755210962,0.7334565051171617,0.1992574999750947,3315531.063454232,0.0033416875522138,0.0,192360.522042175,9.97578709594499e-05,10,2
463,646.9790280777537,439.45,1228.5,93.13139532000916,48.84004884004884,136.5343042439413,5.837697007067763,0,667,45.63851576626583,51.88156050415524,45.99120875019126,23,4.978354978354979,194,41.99134199134199,578.125,726.5625,148.4375,9.645833333333334,194765690.3077,194765690.3077,646.9790280777537,642.58,45.58920347118866,0.6879190585479437,49.80499999999995,29.9945275669523,24.105670995670994,0.2113852813852813,23.44000000000005,17.579999999999927,1.949999999999932,56.290558559859534,4.388096150902263,0.0406487086496584,36.72526623683481,53.07544688958341,504.3591583424087,90.34815766153834,204.29088934738064,209.7201113334897,0.9741120584402336,49.34431428426052,50.65568571573947,0.5286491007946466,0.6727380303667719,-11.122725337811891,-1399649565.7455134,23.18177556755901,1.035175879396985,4.09111511582548,0.935349119942386,0.2106713984187257,3387043.459805402,0.0067001675041876,0.0,193929.5807452729,0.0001005746878751,10,2
459,654.0936819172114,439.45,796.88,92.0018918918512,75.29364521634375,136.5343042439413,5.110299134818378,0,357,35.24762339554607,34.29603178810964,25.04906951546012,30,6.550218340611353,215,46.943231441048034,593.75,734.375,140.625,8.826923076923077,196946908.91772813,196946908.91772813,654.0936819172114,650.39,35.20920635590671,0.6841265172588856,50.780000000000086,28.107774122963157,23.454890829694325,0.1620524017467247,23.43999999999994,19.529999999999973,1.954999999999984,2.529367656057937,-0.0597589968750447,0.0312369690550728,24.27720390306913,43.5362754575687,449.2585930146018,58.80795973063002,166.82471210959682,223.625921174375,0.7459989934687099,42.72619836891556,57.27380163108445,0.3537755527743012,0.6488554934446145,-15.543429716209884,-1287665591.7259016,29.721645748154927,0.8955722639933166,4.670431074318201,0.6943098073845017,0.1659657082285761,3448358.1517351163,0.0033416875522138,0.0,196358.02067454663,4.796758257914681e-05,10,2
458,657.3252328483286,525.39,1271.5,91.65726973106509,47.1883602044829,114.20087934677098,5.526330637943406,0,611,46.94833952971042,52.09776893669287,44.86693540217583,38,8.315098468271334,216,47.26477024070022,585.9375,742.1875,156.25,9.16,198898314.4656729,198898314.4656729,657.3252328483286,650.5353492942763,46.89705787647056,0.6917802357734515,50.780000000000086,31.426995778359423,26.562013129102844,-0.0299343544857766,25.24465070572376,19.529999999999973,1.9500000000000453,62.534804443538206,5.064347702323894,0.0779300658445044,36.879050786676686,55.210766905266425,394.2701668022181,51.950049423892246,130.1752686886873,212.1448486896385,0.6136150346932523,38.02734986352556,61.97265013647445,0.3693843594009983,0.6514004943629518,-11.733039695792542,-1440015871.5027208,30.908005569559112,0.8159866777685263,4.680718100088402,0.6921968767638484,0.1696776801454761,3498724.765814854,0.0033305578684429,0.0,198140.5376102392,5.906948498845235e-05,10,2
458,658.7667612326081,525.39,1271.5,91.46059671615082,47.1883602044829,114.20087934677098,5.559571578394917,0,611,47.138492919519926,52.43013795136327,44.98369554045107,43,9.409190371991247,220,48.14004376367615,593.75,742.1875,148.4375,8.980392156862745,199775400.87707296,199775400.87707293,658.7667612326081,653.325,47.0870035618054,0.695027303521845,54.1925,31.955588897181137,27.01507658643326,-0.0042669584245075,26.375,19.530000000000086,1.9600000000000364,60.8900937332613,4.933428537398318,0.0527827781229501,37.1143346922333,55.37690122966568,680.5007159330579,44.42475735603768,202.205201324728,433.8707572522922,0.46604938900537,31.789473976832237,68.21052602316777,0.49813200498132,0.6563301919025625,-11.681793493896738,-1452206522.4435515,31.06527317511994,0.8113050706566917,4.677936200305962,0.7027634342487973,0.1686602947620748,3514838.5837265835,0.0033250207813798,0.0,199017.83745197396,6.054135134141637e-05,10,2
456,660.649488255558,525.39,1271.5,91.193080669601,47.1883602044829,114.20087934677098,5.503316423399605,0,611,46.795876981670936,52.5935280307615,45.00715833829288,43,9.45054945054945,225,49.45054945054945,601.5625,750.0,148.4375,9.5,200021115.9441729,200021115.9441729,660.649488255558,658.2,46.74453755098478,0.6966561261922622,52.74000000000001,31.283368324900163,27.292615384615388,-2.498611818057495e-16,27.340000000000032,19.530000000000086,3.899999999999977,62.24862088440368,4.968939273716664,-0.0476398861423431,37.23017510141885,54.71400430314941,845.9766038778687,38.136070656355535,305.46112841071823,502.3794048107949,0.6080287636905823,37.81205768329027,62.18794231670972,0.508939708939709,0.6547777309250956,-11.870296376117633,-1441027676.0815363,30.84908173217732,0.8159866777685263,4.677321332006244,0.7522643231668585,0.1701609732176943,3533003.7973790825,0.0033305578684429,0.0,199206.73440261328,5.922670031269295e-05,10,2
457,659.1054631171432,525.39,1271.5,91.43665036046478,47.1883602044829,114.20087934677098,5.731127970796473,0,611,48.40605417877073,52.85096707730142,45.380386323012175,49,10.74561403508772,213,46.71052631578947,601.5625,726.5625,125.0,7.745762711864407,199598419.87347293,199598419.87347293,659.1054631171432,654.3,48.35306450314015,0.7013364554940796,56.63999999999999,32.69537711874917,27.172807017543857,-0.0771052631578949,27.34999999999991,19.52999999999992,1.9599999999999227,54.72182666041872,4.626582333638684,-0.0587620380134293,37.41228219548197,57.32899182125742,814.1648722252928,27.769207601003416,248.27590248074245,538.119762143547,0.4613766673272877,31.57137223020672,68.4286277697933,0.4557172557172557,0.6514967359585724,-11.350335797730809,-1457813095.181221,29.88640021391358,0.835970024979184,4.649015795030574,0.7456965433606706,0.1775592767103098,3519967.550157825,0.0033305578684429,0.0,198794.74219577195,6.137017556842345e-05,10,2
456,662.0377097827242,525.39,1271.5,91.08881930417024,47.1883602044829,114.20087934677098,6.112222855547496,0,611,51.58770316333468,52.747470602920565,45.525518766503296,44,9.670329670329672,210,46.15384615384615,601.5625,726.5625,125.0,8.290909090909091,201072919.1620447,201072919.1620447,662.0377097827242,656.25,51.53110665352145,0.709255923532112,56.63999999999999,35.19776275944373,26.725978021978023,-0.1373626373626373,29.299999999999955,17.58000000000004,1.9599999999999227,41.59088252801564,3.956144046859209,0.0082588267590502,37.33902214492039,62.67678725491445,612.9320151615706,82.65440182357182,197.23677235376653,333.0408409842322,0.5922299852801077,37.19500265383594,62.80499734616405,0.3218581501451679,0.6152716046708719,-11.235317377440976,-1478306873.354036,29.35316837058888,0.8438538205980066,4.617042292934982,0.6843077901022299,0.1780950618423631,3559571.597947347,0.0033222591362126,0.0,200341.25158810307,6.053282060460144e-05,10,2
458,657.1539558744195,568.36,810.55,91.7082628473938,74.02381099253594,105.566894221972,5.997359702528002,0,87,44.70353095214363,28.185888861441136,17.81138506868289,37,8.096280087527353,197,43.10722100656455,585.9375,718.75,132.8125,8.641509433962264,198701176.74397284,198701176.7439728,657.1539558744195,652.34,44.65470130245103,0.7100418257928929,56.63999999999999,34.7802128732619,21.860765864332603,-0.1068490153172867,27.340000000000032,17.579999999999927,1.9599999999999227,0.4817976651173485,0.7758137744154857,0.0221722093996558,19.952131360344094,59.98936416864328,926.5723119248646,42.62543667405611,334.6891277565431,549.2577474942653,0.6093480324736567,37.86303647055479,62.1369635294452,0.2929671244277986,0.5475316211826945,-15.65682145771574,-1339544576.3853788,51.55750825965284,0.51,6.289364906150606,0.7748978888960913,0.1086938636098505,3500247.0741789974,0.0033333333333333,0.0,198117.7749112297,1.087746251997462e-05,10,2
446,677.7847722053189,470.55,1298.4,89.56475640404005,46.21072088724584,127.5103602167676,9.064077996671434,0,665,82.36068352901982,90.54407303987053,82.01776706506494,70,15.730337078651685,217,48.764044943820224,531.25,773.4375,242.1875,16.51851851851852,207907480.63046196,207907480.63046196,677.7847722053189,675.5600000000001,82.26829911011843,0.7781322837719541,80.09976223132696,51.84374354787574,38.55426966292135,0.0043820224719102,39.04999999999996,19.529999999999973,0.0,23.709482774432743,3.43783130990535,0.2276258914324169,64.09638688529992,97.25336791589618,2446.062715271623,250.15139821583136,1033.7442207660838,1162.1670962897078,0.8894970646358668,47.07586379909437,52.92413620090564,0.4871582435791217,0.5970300669503076,-7.294170120328181,-1811176961.9263835,24.142477578296603,0.978441127694859,4.10683328873654,0.5522503433896919,0.2228830212488107,3803879.129976943,0.0033167495854063,0.0033167495854063,206560.76484967917,0.0001541584476298,10,3
434,694.8339133722861,511.55,1298.4,87.07935776657946,46.21072088724584,117.29058743035873,7.176613737444445,0,665,74.09401425408727,89.80465170753544,80.80139542218036,68,15.704387990762124,249,57.50577367205543,578.125,773.4375,195.3125,12.4,211909805.18936196,211909805.18936196,694.8339133722861,687.2700000000001,74.00860325825741,0.752155521916679,61.99054447495155,43.07338415585236,39.38385681293303,0.0991916859122397,31.24000000000001,23.430000000000064,0.0,33.7311277348809,4.56551181800058,0.0479414481100418,63.5748940217734,83.29513039001773,1864.5383006004804,169.1756448905799,1026.8091300959445,668.5535256139559,1.535866749267368,60.56575132392473,39.43424867607527,0.4916943521594684,0.6515209190865116,-7.922938783903383,-1776186929.121056,25.11266865510617,0.9609310058187864,4.207334283829135,0.7581643913983158,0.2159950109280817,3960721.4892934263,0.0033250207813798,0.0,210593.41621841543,0.0001271547405278,10,3
429,699.6020263160225,581.84,1298.4,86.3576067107068,46.21072088724584,103.12113295751408,6.286659205654722,0,665,69.37430351297164,88.24120067827427,79.59690848144486,61,14.252336448598127,256,59.813084112149525,609.375,757.8125,148.4375,9.75,212030920.7785584,212030920.7785584,699.6020263160225,691.1800000000001,69.29340050759131,0.7201824199316919,51.06598855383504,37.55332007346377,38.283738317757006,-0.072990654205608,25.38000000000011,25.379999999999995,1.9499999999999889,43.36810676607502,5.48382978150366,-0.0595380327606144,62.46895045648752,75.65195440095863,1345.3771547426395,76.38710389317637,938.4507930883028,330.53925776116034,2.8391507848257,73.9525729504422,26.0474270495578,0.4974958263772954,0.6497813638012168,-8.47927461326086,-1709223440.0849123,24.751237206923754,0.9690893901420216,4.191450824954749,0.7869519359270654,0.2182609749038391,3998599.166018806,0.0033416875522138,0.0,210684.78750262095,0.0001140876073598,10,3
432,696.0693563833199,616.98,1431.2,86.87744867186747,41.92286193404136,97.24788485850432,6.402030059308718,0,712,77.28029594460376,87.9717767432794,79.2239437817188,58,13.45707656612529,267,61.94895591647332,609.375,757.8125,148.4375,9.6,211883458.3479182,211883458.3479182,696.0693563833199,685.32,77.19079933560478,0.6988775622843106,48.87471861742233,36.69644985070038,38.4338747099768,-0.2627378190255223,25.379999999999995,25.379999999999995,7.809999999999945,47.02878290929064,6.15701014279037,-0.1248794735931995,62.27745203524179,89.8109528430093,730.2491501620038,154.74039411778847,334.29225647492154,241.21649956929383,1.3858598274654508,58.08638929713147,41.91361070286854,0.3698458975426905,0.6307172772260013,-7.394762535219305,-1846689501.8517756,27.696144793327576,0.8807339449541284,4.44207237478459,0.7491145241496205,0.1999518028844839,3995334.936679343,0.0033361134278565,0.0033361134278565,210546.70290946795,0.0001070159608015,10,3
439,683.7023006833714,601.36,810.28,87.9966107624266,74.04847706965494,99.77384594918183,4.58337088919317,0,99,35.83765605156277,32.09965908651242,17.875889692673475,43,9.817351598173516,258,58.9041095890411,609.375,757.8125,148.4375,9.145833333333334,205772578.8513,205772578.8513,683.7023006833714,681.4200000000001,35.796815404618364,0.6891370414344209,47.83500000000004,28.62743945911448,26.675273972602746,-0.1604794520547947,23.430000000000064,23.430000000000064,7.809999999999945,-0.0774406156742086,0.2629818375715983,-0.068732892314413,22.72355791265405,45.3024844609044,537.3319209978682,120.52692411586924,264.9850142414737,151.81998264052524,1.745389570152285,63.57529689513133,36.42470310486867,0.3971631205673758,0.5785842480000891,-19.003427987612984,-1291105113.397832,39.47482133056845,0.6482873851294904,5.534998909629428,0.662950428814642,0.1280204119074975,3767314.165028497,0.0033416875522138,0.0,205244.02155171536,1.5871216893118026e-05,10,3
446,672.1265470852017,542.79,777.0899999999999,89.65193611596423,77.21113384550053,110.53998784060134,6.002124562285608,0,80,43.19347517003083,29.29391583492757,16.586839714903725,29,6.51685393258427,246,55.28089887640449,593.75,750.0,156.25,9.911111111111111,202312552.4546,202312552.4546,672.1265470852017,675.5600000000001,43.145024818079726,0.712683933919773,52.72000000000003,33.56308512135777,24.158404494382022,-0.0175505617977529,27.329999999999927,21.48000000000013,3.909999999999968,0.2702559412539602,-0.4127502229526267,-0.1400841903650178,20.737236186954853,57.45711122093235,509.1518785394592,64.97396757085164,294.49431255170475,149.68359841690275,1.9674454360154496,66.30098104372377,33.69901895627622,0.3943191311612364,0.504082513924175,-18.333042671974816,-1298607804.6951184,52.0346141963518,0.5016722408026756,6.2261765304592105,0.6163970863745909,0.1024510153946322,3655936.151541333,0.0033444816053511,0.0,201807.654467009,1.2135650189912542e-05,10,3
455,659.7541758241757,542.79,777.0899999999999,91.3670579140065,77.21113384550053,110.53998784060134,6.314406108029164,0,80,44.58070029633618,27.96829221821605,16.62360252556962,25,5.506607929515418,222,48.89867841409692,554.6875,742.1875,187.5,11.666666666666666,198952682.7283,198952682.7283,659.7541758241757,663.84,44.531683568708594,0.7208825525763968,62.48000000000002,36.04419176427968,22.50533039647577,-0.2279295154185022,29.289999999999964,19.529999999999973,1.9600000000000928,-0.3452004142652076,-0.1617750795649736,-0.1504097591488034,19.79772802464737,59.85756128414848,899.9664613658958,258.9650550385136,415.07499700934574,225.9264093180365,1.837213268967794,64.75414763713516,35.245852362864845,0.3571130579891531,0.5293859709506847,-15.942821027648757,-1311186530.0306935,36.760148023077626,0.6449456975772765,5.427745276751007,0.5825452993989173,0.1350589645055147,3527355.116787604,0.0033416875522138,0.0,198425.4692434691,1.3069579163317471e-05,10,3
358,852.003712362635,568.35,1207.0,71.23297770617384,49.71002485501243,105.56875164951174,7.672075063658187,0,638,91.32304346308096,74.02034913652982,55.16022766511693,124,34.73389355742297,261,73.10924369747899,656.25,1039.0625,382.8125,22.375,262853240.34638417,262853240.3463842,852.003712362635,851.5500000000001,91.19540811983728,0.8492861073641813,131.03074300841365,73.27116947887822,49.44577030812325,-0.6127170868347339,64.45000000000005,35.180000000000064,-5.860000000000014,0.1827621485908408,0.2767894825582618,-0.0127435463336959,52.41195518627841,118.03721230303216,5159.462119307367,163.17104093863765,426.2840325305805,4570.007045838149,0.093278637922187,8.532009561575837,91.46799043842417,0.2201232032854209,0.5628008405863605,-9.791791061069976,-2064539902.2450628,28.33762260552557,0.875,4.745375745852749,0.793765385476542,0.1803538357770294,5982474.512226087,0.006578947368421,0.0,261739.8084372088,3.0892224240768195e-05,11,1
360,844.2776746552917,677.72,1097.6,71.86348450834299,54.66472303206997,88.53213716579118,7.575108936525829,0,347,89.7321043174523,60.7130991002878,41.8615514693705,115,32.03342618384401,255,71.03064066852369,656.25,1015.625,359.375,21.176470588235293,259500339.43742517,259500339.4374252,844.2776746552917,838.855,89.60738972720715,0.8463757552110942,135.25750000000005,73.59197683830683,44.0292200557103,0.1360167130919221,67.38499999999999,35.14999999999998,-5.8599999999999,-0.4256128162669785,0.2993623095834942,-0.0603998797017377,42.99045338276104,119.39649077096416,6044.27708016367,242.3498623944569,464.0200823327887,5337.907135436424,0.0869292159940977,7.997688783679711,92.0023112163203,0.2177319587628866,0.5444495777846666,-10.9687769243097,-2005225648.260038,54.67360848643702,0.495458298926507,6.412550204076421,0.869998806056642,0.113135464293369,5880448.396428943,0.0066061106523534,0.0,258384.22956773956,1.4138559821072422e-05,11,1
364,830.1748890498865,593.74,1050.8,73.09572687414094,57.099352874000765,101.05433354667026,7.76416348957379,0,347,88.72839555572054,60.37746007138195,43.797542844451534,98,26.997245179063363,244,67.21763085399449,664.0625,1046.875,382.8125,22.75,253723086.4214477,253723086.4214477,830.1748890498865,822.25,88.60643206775296,0.841708926243135,141.11,75.05679274162996,41.6232782369146,0.5595867768595041,70.31000000000006,29.300000000000068,-7.810000000000059,-0.7264407417427807,0.25285288862649,-0.2011833880960719,42.75040322697149,117.97397755317128,3580.2451377324023,149.35348501742467,627.4901044028661,2803.401548312112,0.2238316893206644,18.289417676781262,81.71058232321873,0.2389050186644545,0.5300813149067595,-10.40234330332496,-1932638888.969537,29.83382142240711,0.813953488372093,4.897952838554619,0.6821953069490949,0.1684779072637536,5687212.182267281,0.0066445182724252,0.0,252637.47420597088,2.683106573969457e-05,11,1
366,819.9519218803497,593.74,1050.8,73.92989234693597,57.099352874000765,101.05433354667026,7.426951184366797,0,347,84.20692814375607,57.28926240456888,41.60428963926412,95,26.02739726027397,235,64.38356164383562,640.625,976.5625,335.9375,20.33333333333333,248657686.898276,248657686.898276,819.9519218803497,807.605,84.09181267210474,0.8335438372121736,124.3284291864885,69.21637327514193,39.44470697823549,0.0349094601206706,63.47499999999991,29.29000000000008,-3.909999999999968,-0.3251065950507477,0.4423606987763251,-0.1586107617900503,40.56522532944809,111.96461936159342,5923.556494734463,1233.8229408890477,889.9859408272922,3799.747613018123,0.2342223830283244,18.977324204219133,81.02267579578086,0.2237061769616027,0.5216944327216583,-11.509921009420728,-1859240295.866337,50.43864423790197,0.5680868838763575,6.091848102301441,0.585263715923747,0.1159118112327501,5538545.130850258,0.0033416875522138,0.0,247850.04647326455,2.038612514644377e-05,11,1
367,819.9386211900731,593.74,1050.8,73.78358250962344,57.099352874000765,101.05433354667026,6.662211722234121,0,347,75.5974229243625,53.19745486563345,37.36653060141121,89,24.316939890710383,238,65.02732240437157,671.875,937.5,265.625,16.681818181818183,248825537.85362828,248825537.85362828,819.9386211900731,812.49,75.49435890517256,0.8129165648342797,103.51999999999998,59.30998176280098,37.91472677595628,0.0587158469945355,50.77999999999997,30.25,-3.899999999999977,0.2776828770719275,0.5081799502404061,-0.0684966866230541,37.667752039845055,100.05539046885283,3287.920561296327,1101.298715278321,220.72565035378184,1965.896195664224,0.112277367869469,10.094367746107492,89.90563225389249,0.2299042065805914,0.5383642637504141,-12.34973505830331,-1816933943.3263423,51.33179787135439,0.5471226021684737,6.102227541532021,0.5763361771082565,0.1109800669955461,5504881.455510137,0.0033361134278565,0.0,247824.2128644758,1.91668483509154e-05,11,1
369,814.7427208042188,593.74,1035.1,74.06954343610278,57.96541396966477,101.05433354667026,5.670208747339969,0,347,61.95534836176461,49.544751985120286,33.64245315844937,93,25.271739130434785,240,65.21739130434783,687.5,929.6875,242.1875,14.76,246356858.89732823,246356858.8973283,814.7427208042188,812.49,61.8713410711095,0.7816918498310034,83.99000000000001,48.1592499221741,36.41350543478261,0.5148097826086955,41.01999999999998,31.22499999999997,-1.9500000000000453,0.7364708708673415,0.2177448090183327,0.1215780449922815,35.07923321596976,80.28933788638952,2620.030226467599,306.5515508436233,286.1189431661632,2027.359732457812,0.1411288478238122,12.367477002527078,87.63252299747292,0.2934556065027094,0.5675201221246405,-13.2605502256121,-1697959838.0669274,28.267781099110834,0.8547579298831386,4.763354928190388,0.6268164920789365,0.1692506155584408,5392756.164120912,0.003338898163606,0.0,245430.68678503123,2.447268928457801e-05,11,1
366,822.441127568865,593.74,1005.8,73.32020159751471,59.65400676078743,101.05433354667026,5.293410430986156,0,275,57.492964358148754,47.78224599511788,29.060269940542465,108,29.58904109589041,251,68.76712328767123,710.9375,937.5,226.5625,14.076923076923077,248772329.39093,248772329.39093,822.441127568865,822.25,57.41436833458377,0.7785413933789188,77.63999999999999,45.703592746837,37.95994520547945,0.1926575342465754,39.059999999999945,33.200000000000045,0.0,0.3042980953327832,-0.1952107984283773,0.2351971072955805,33.83325423611246,73.93370550141054,1788.859748337679,203.77150235646025,763.1644375651059,821.9238084161133,0.9285099540257392,48.14649528188781,51.85350471811218,0.3165347771761766,0.5677367923283515,-15.476746368286248,-1671466462.041533,46.2386351815489,0.5804837364470392,5.950195467166688,0.6083053304635608,0.1172680699133056,5478121.403481003,0.0033361134278565,0.0,247675.6154000675,1.6236279705885547e-05,11,1
378,801.0748029139494,687.65,970.91,75.19813781517777,61.79769494597851,87.25369010397732,4.722788413398432,0,115,50.99610320545517,40.08589530649199,24.612923945050536,78,20.689655172413797,222,58.88594164456234,671.875,890.625,218.75,13.5,243550904.62683675,243550904.62683675,801.0748029139494,797.04,50.928603370172034,0.7769210827965916,69.35249999999996,40.76491777144882,31.665278514588863,-0.0880901856763923,34.19587748344367,25.399999999999977,5.860000000000014,0.0935358031646442,0.3908611236271039,-0.0428881957799921,28.38260767065507,66.29956761621105,1828.2202443587692,192.2257152380746,1010.539276046508,625.455253074187,1.6156859680681983,61.7691109633262,38.23088903667381,0.3276789408357468,0.5220583295520893,-17.852872362879864,-1589883146.689097,52.26118371683022,0.5236122618061309,6.290765985430258,0.7458675959311503,0.1026130464190279,5190775.114081467,0.0066280033140016,0.0,242774.0003680901,1.3160723954216615e-05,11,2
377,799.8843974900337,666.16,970.91,75.37391286254194,61.79769494597851,90.06845202353789,5.230911483542561,0,117,55.897050844436784,40.15320199038184,24.79441248652824,80,21.27659574468085,220,58.51063829787234,695.3125,937.5,242.1875,15.708333333333334,242385078.1944015,242385078.19440156,799.8843974900337,795.0899999999999,55.82286759895081,0.7847196495335633,76.18000000000006,44.89923746585269,31.609361702127668,0.0,37.12000000000012,25.399999999999977,2.5255218855218686,-0.1663850745052961,0.2790625117319668,-0.0586844912930178,28.430433011363768,73.76090471921734,2519.6052794733373,300.7739536928268,1170.3695988834154,1048.461726897095,1.1162730778424357,52.747118957846816,47.25288104215319,0.3291770573566084,0.490530333347528,-17.158678393940377,-1596943714.8759277,54.96036249610453,0.4891846921797005,6.408005870404514,0.7378604537055198,0.0983864118765847,5186455.010931163,0.0033277870216306,0.0,241464.70072060332,1.23695660795348e-05,11,2
376,801.8661292023808,666.16,970.91,75.19755065529891,61.79769494597851,90.06845202353789,5.303889053514936,0,117,56.62209845523305,39.78660961945035,24.61067989233483,80,21.333333333333336,220,58.66666666666666,687.5,929.6875,242.1875,15.04,242966245.98746824,242966245.98746824,801.8661292023808,799.0,56.54675298146464,0.7826068705945031,80.09000000000003,46.06318723080336,31.287440000000004,0.39592,39.95736926653433,25.399999999999977,5.8599999999999,-0.3968238261801655,0.1804015174697452,0.0830984203454858,28.169572989815556,74.95731601731525,1851.001195174171,295.8174892331972,948.6120212124754,606.5716847284984,1.563891037276285,60.996782411535854,39.00321758846415,0.3459459459459459,0.5049368484220959,-15.800830392314136,-1600936157.038103,32.51124617409292,0.746044962531224,5.128605119327106,0.709048328854613,0.1449120685554618,5212916.9002749575,0.0033305578684429,0.0,241972.7191808028,1.6069611659461763e-05,11,2
376,802.5805825192596,666.16,935.74,75.0897057556759,64.1203753179302,90.06845202353789,5.03549069737068,0,117,53.05525517509624,38.21884879907786,23.10185474216314,78,20.8,216,57.6,671.875,906.25,234.375,14.461538461538462,243250554.9184301,243250554.9184301,802.5805825192596,804.86,52.98465600187358,0.7869008263844595,74.23000000000002,42.84767776169699,30.469786666666668,0.0260533333333332,35.17000000000007,25.399999999999977,5.352690237364982,-0.4440198499123382,-0.0615676670258811,0.1178268342539832,27.06090617026676,69.98162302085578,1929.716023729188,177.6093038783805,1048.766581425061,703.3401384257468,1.491122892221772,59.85746013886436,40.14253986113565,0.3421926910299003,0.5166271085540158,-17.892360581861986,-1587508378.6846108,57.74051226791661,0.4754779717373233,6.558500739214328,0.7141281764435339,0.094197145033391,5213573.684287959,0.0033250207813798,0.0,242362.857166146,1.146911251937624e-05,11,2
373,810.6297833668858,666.16,931.84,74.28590038943179,64.38873626373626,90.06845202353789,4.541082263652196,0,117,48.39597314485255,37.14380116675776,21.689023457012524,72,19.35483870967742,221,59.40860215053764,710.9375,906.25,195.3125,12.433333333333334,245977288.15976772,245977288.1597678,810.6297833668858,810.72,48.331055646624165,0.7759714744883611,64.46999999999991,38.10696482350661,30.174704301075263,-0.189059139784946,31.25999999999999,25.40000000000009,3.909999999999968,0.0339568420092799,-0.2087976921015948,0.0273368816552272,26.299666260417062,63.187561971208055,2392.350922992734,765.5553188802058,990.496063375757,636.299540736771,1.55665060237017,60.886325293219976,39.11367470678001,0.3547451305428926,0.5360467136067059,-18.94400529035556,-1573210569.3145945,50.21885358107205,0.4912863070539419,6.285523635834469,0.7746687146723837,0.1047064208581078,5306687.906081281,0.0099585062240663,0.0,245121.78995780897,9.98161038118716e-06,11,2
375,806.6371134781372,666.16,931.84,74.63783963701738,64.38873626373626,90.06845202353789,4.415600978597993,0,117,46.87372650473422,37.07593152221581,21.82549703868227,73,19.518716577540108,222,59.35828877005348,742.1875,914.0625,171.875,12.096774193548388,244820520.00755677,244820520.0075568,806.6371134781372,806.8100000000001,46.81118648154643,0.7724936059754293,58.29554881368552,36.62873191436142,29.99243315508021,0.0104545454545453,29.300000000000068,25.400000000000038,5.8599999999999,0.1454464040791458,-0.1162339735623544,-0.0412291370932632,26.25176098432543,60.86984079249013,1030.0844267068696,250.58992460012203,102.277586081303,677.2169160254447,0.1510263309451357,13.121014427282851,86.87898557271716,0.3811101905550952,0.5399334520250422,-19.423097852138827,-1566503549.423813,59.61032734829468,0.4344941956882255,6.688488605007434,0.6442036104323823,0.091774987822718,5252244.350607768,0.0066334991708126,0.0,243983.3563489561,9.284804906920208e-06,11,2
384,784.3817007690432,650.36,1009.7,76.85866040623264,59.42359116569278,92.2565963466388,5.245842267374144,0,123,55.09384925168982,35.438129973783255,21.544975051641742,56,14.621409921671018,218,56.91906005221932,679.6875,882.8125,203.125,13.241379310344827,237420318.8028292,237420318.8028292,784.3817007690432,777.31,55.022065704264136,0.7647542842386071,68.84000000000003,42.72962801559007,28.158250652741515,0.346762402088773,35.149999999999864,25.389999999999983,3.909999999999968,1.238847295809192,0.6854510395198236,0.0866604427933584,25.090118488037195,73.76415392988724,1676.0494064466998,438.8291142267826,232.2528185545498,1004.9674736653676,0.2311048114895358,18.772147532257467,81.22785246774255,0.2397003745318352,0.5241082402711192,-15.834437481255955,-1577259126.7856338,38.94244524413343,0.5700000000000001,5.6641604712030444,0.5432257472398502,0.1269878470488211,4990295.71280805,0.0033333333333333,0.0,236529.7536571473,9.006817736856241e-06,11,3
384,782.3105539748616,656.22,1009.7,77.0215150232683,59.42359116569278,91.43275121148396,4.923611138390093,0,123,52.15956751302209,35.80883059423079,21.47820485280549,58,15.143603133159267,223,58.22454308093995,687.5,890.625,203.125,13.714285714285714,236053761.9434593,236053761.9434593,782.3105539748616,775.36,52.0916071356092,0.7558421501531268,66.40000000000009,40.33476126223424,28.673394255874676,0.1070757180156657,33.19999999999993,25.389999999999983,5.6920198933758,1.737168075863483,0.9097213509035952,-0.0854467820956116,25.35367416371796,69.2707165596765,1949.9952392433968,272.2113850888653,147.82098470417438,1529.962869450357,0.0966173674249228,8.810490358346208,91.1895096416538,0.2602168473728106,0.4980632988911112,-17.792794986339814,-1538962296.6053953,63.12002474348808,0.3806343906510852,6.983942984355414,0.4637232475447042,0.0919222560658292,4958890.724081635,0.003338898163606,0.0,235352.23422351893,7.397183891921813e-06,11,3
381,787.4350202791255,656.22,1009.7,76.51202977434318,59.42359116569278,91.43275121148396,4.847467017217907,0,123,51.629512012392674,36.73053884588983,21.861952858277185,60,15.789473684210526,225,59.210526315789465,687.5,882.8125,195.3125,12.7,237253470.6267593,237253470.6267593,787.4350202791255,779.27,51.56171223000836,0.7571683557404791,62.49000000000001,39.95425969255735,29.537184210526323,0.0668157894736841,31.25,25.389999999999983,5.8599999999999,1.5871355704067396,0.7987399356553868,-0.1076489546567368,26.00661189098645,68.2266015512073,906.0820769541637,199.88937905956556,132.9410763305255,573.2516215640726,0.2319070218550906,18.82504261611148,81.17495738388851,0.3040935672514619,0.5079708559623493,-17.916500718572795,-1542304476.3405514,65.31258235071896,0.3745819397993311,7.03854048695685,0.4841910733280421,0.0892898907620825,5019786.30886714,0.0033444816053511,0.0,236413.07026553052,7.77859948554577e-06,11,3
386,777.3716650941627,656.22,931.6,77.40867326234954,64.405324173465,91.43275121148396,4.155046239642916,0,105,42.43272482316748,32.414019080477495,18.761213257047352,47,12.207792207792208,215,55.84415584415584,687.5,867.1875,179.6875,11.352941176470589,233955594.80915928,233955594.8091593,777.3716650941627,771.4499999999999,42.377724508640895,0.7362549046539849,56.14249999999993,33.54621030907505,26.44994805194806,-0.2840779220779221,27.33999999999992,23.42999999999995,3.910000000000082,0.3977474459204067,0.4836393894835062,-0.0738738877434521,22.949115873584805,55.4473656043106,909.7571815546072,357.06543651257067,223.30554287213127,329.3862021699052,0.6779444354409995,40.40327087844367,59.59672912155632,0.3106471816283925,0.5284422775655059,-19.89956662205472,-1454047728.4887748,41.64863870995583,0.5752508361204013,5.817450531389921,0.7374611890607048,0.1185433469280493,4873405.105977405,0.0100334448160535,0.0,233195.1840460169,9.8724157937525e-06,11,3
386,776.005577011261,656.22,945.27,77.57013116151894,63.47392808403947,91.43275121148396,4.3707002779712765,0,105,44.866160000064745,33.582199833793375,19.956571715953785,50,12.987012987012983,210,54.54545454545454,687.5,859.375,171.875,11.352941176470589,233218271.38385928,233218271.3838593,776.005577011261,770.4749999999999,44.80800552325735,0.741075255555677,56.15250000000003,34.71709139440098,27.028389610389617,0.0912987012987012,26.365000000000123,21.49000000000001,5.6920198933758,0.8576271602696148,0.6540386605547218,0.0645987307223383,23.77701278875353,58.8268500698981,1085.476521901138,441.84687640866827,257.18738287486065,386.4422626176091,0.6655260248523898,39.95890877246265,60.04109122753739,0.3213389121338912,0.5038008855437275,-20.366659289017523,-1456663502.2893178,57.59687113804501,0.4589614740368509,6.654268969259391,0.7733812682120484,0.0928108683448739,4860979.907791828,0.0100502512562814,0.0,232366.3222189424,9.797535973977758e-06,11,3
382,785.1602617801046,656.22,945.27,76.730441110389,63.47392808403947,91.43275121148396,4.865258665879269,0,128,50.821147115713686,35.37514578584912,20.548823608777592,59,15.485564304461944,222,58.26771653543307,687.5,898.4375,210.9375,13.642857142857142,236478117.818,236478117.818,785.1602617801046,777.31,50.75458369865345,0.7615397709863408,69.8225000000001,40.66521065760258,28.8141469816273,-0.2306824146981624,33.19999999999993,25.38000000000011,5.860000000000014,0.119535053044423,0.4987612579069873,0.1649727509950829,25.046364459962632,67.36659124263856,1313.167042119228,713.378339631904,210.36697655461148,389.4217259327124,0.5402034928861685,35.07351433633538,64.92648566366462,0.3141186299081036,0.4722174281750141,-18.743057439854464,-1500270602.233302,45.031152127457695,0.5652173913043478,6.014521323707386,0.7239519088938069,0.1111989264402172,4990332.47866348,0.0066889632107023,0.0,235744.3280689431,1.127259476086806e-05,11,3
383,783.0440731070496,662.08,945.27,76.96878885591998,63.47392808403947,90.62348960850652,5.130935706393967,0,128,52.96414802026902,34.21597526905474,20.58266772493957,52,13.612565445026178,210,54.9738219895288,671.875,898.4375,226.5625,14.73076923076923,235911108.5966,235911108.5966,783.0440731070496,775.36,52.89495903185483,0.7655894077510685,72.2700000000001,42.46276271567739,27.353167539267027,0.0920157068062826,33.19999999999993,21.49000000000001,3.909999999999968,0.0064221810924918,0.3993498771052601,-0.0811558928717899,24.22599084072929,70.87667683244491,1685.2334430115066,625.0110344746043,637.3133133576988,422.90909517920346,1.506974715423521,60.111284974365496,39.88871502563452,0.3007518796992481,0.4454869470227509,-19.1764712542024,-1503257618.490487,59.802561981336055,0.4481605351170568,6.775558072512782,0.6726658904616305,0.0904746200135766,4970271.564971855,0.0066889632107023,0.0,235231.04937751347,9.550728923230832e-06,11,3
383,783.7172323759789,662.08,945.27,76.88235904432837,63.47392808403947,90.62348960850652,4.986235309667542,0,128,51.295207079059125,34.269500322532004,20.17435881617113,54,14.136125654450264,217,56.80628272251309,671.875,882.8125,210.9375,13.20689655172414,236248581.9626,236248581.9626,783.7172323759789,779.27,51.22819828875558,0.7596757759946582,68.36000000000001,40.55270306566953,27.72109947643979,0.1329319371727748,35.15000000000009,23.44,5.860000000000014,0.1878626036782438,0.3375608887861337,-0.0023574221152925,24.263793461007133,68.36420748790043,1905.4742508626653,358.5263759747379,1112.478103917623,434.4697709703043,2.5605420175335056,71.914388453342,28.085611546658,0.3006263048016702,0.4501024513427329,-19.716772878095657,-1490417998.7240872,56.96768039896263,0.4448160535117056,6.665360585824856,0.6730965980805573,0.0934662750707281,4971828.103755964,0.0066889632107023,0.0,235390.47436041335,1.1663570721536704e-05,11,3
426,714.9078303577691,609.37,812.49,84.17855041890434,73.8470627330798,98.4623463577137,4.705762346315163,0,82,38.41092135519629,17.392558746690604,11.0445375660735,5,1.1764705882352942,95,22.35294117647059,625.0,789.0625,164.0625,10.923076923076923,218352750.24004516,218352750.24004516,714.9078303577691,721.6725,38.36581162576919,0.6449563168690203,46.87999999999988,30.628941459227818,13.446423529411764,0.091929411764706,24.407499999999917,11.719999999999914,0.0,-0.0896114697361087,-0.5970212728278402,0.0537620381660244,12.312718521892032,52.90741650573013,1455.7125891504047,224.25113729489095,389.7928968585326,841.6685549969812,0.46311923445914,31.652870357509705,68.3471296424903,0.1447963800904977,0.5162865403241155,-24.21972973664983,-1348220379.7095687,87.98252868210307,0.2504118616144975,8.456302808216453,0.6013302345652108,0.0643446433733705,4123301.4594475655,0.0032948929159802,0.0,217731.365442454,3.276420880232911e-06,12,1
423,717.6113493593139,609.37,812.49,83.88190324600758,73.8470627330798,98.4623463577137,4.878688315283376,0,82,40.08399895682768,17.220360494783264,11.193236621660825,5,1.1848341232227488,93,22.03791469194313,656.25,789.0625,132.8125,9.4,218508677.3948324,218508677.39483243,717.6113493593139,722.65,40.03659030752779,0.6457915305052987,50.77999999999986,31.836914293296527,13.097677725118482,-0.0647867298578197,23.43999999999994,11.719999999999914,0.0,-0.129022281653385,-0.5789971602515968,0.1103276157664834,12.191000384783528,55.36093798302313,1169.7711769429054,104.26703276605852,258.5849859607698,806.919158216077,0.3204595941586578,24.26879213694088,75.73120786305911,0.1584812216260833,0.5078639555296919,-24.12846557700117,-1349982576.6445265,100.35010615540132,0.2181818181818181,8.96033826386835,0.639601641926942,0.0585644906234404,4158480.283901884,0.0033057851239669,0.0,217918.1315320284,2.98846510898312e-06,12,1
417,724.6173811347751,613.27,792.96,82.98295207064146,75.66585956416465,97.83618960653546,3.955563485415424,0,50,33.24700650233521,15.38944683134795,10.009628937158816,2,0.4807692307692308,77,18.509615384615387,664.0625,789.0625,125.0,8.176470588235293,219414166.7423809,219414166.7423809,724.6173811347751,726.5500000000001,33.20711805785571,0.6189655885206177,39.059999999999945,25.817859930191823,11.69971153846154,0.0281730769230769,19.530000000000086,7.82000000000005,0.0,0.4988298066558871,-0.6703483704293147,0.070297152178681,10.895066889762475,45.73865323990465,625.697160965391,42.82616276196994,131.39456593833216,451.4764322650889,0.2910330563194991,22.54264946160105,77.45735053839894,0.1459369817578772,0.5291599102357808,-28.445071494391588,-1307388956.423378,125.3896778351036,0.1892116182572614,9.836087947077877,0.8055674773786268,0.0486634565190946,4227031.935595735,0.0099585062240663,0.0,218808.40663805453,1.909183413794712e-06,12,1
410,733.302114392269,644.52,792.96,81.94502628600834,75.66585956416465,93.09253397877492,3.218332391988627,0,50,28.220303340809185,14.591308470988784,9.496337523457516,1,0.2444987775061124,61,14.91442542787286,671.875,789.0625,117.1875,8.72340425531915,220795837.97653544,220795837.97653547,733.302114392269,734.36,28.185867326346195,0.5904036410892542,39.06000000000006,22.454947876463702,11.088117359413204,0.1241564792176038,19.530000000000086,7.810000000000059,0.0,0.1256785471219639,-0.4064717211605971,0.0455521731272341,10.3298755899457,38.54950987484557,681.0608453605362,21.297318876384296,306.2801247739314,353.48340171022056,0.8664625362664536,46.4227124536701,53.57728754632992,0.15,0.5332301661835753,-30.73839828692504,-1275291388.2271652,74.34886188036991,0.2668890742285237,7.888775290245804,0.756127019911035,0.0686455320820297,4321601.417811334,0.0033361134278565,0.0,220205.55309285125,2.711551624648724e-06,12,1
408,737.8246623688567,644.52,818.35,81.45823785212012,73.31826235718214,93.09253397877492,3.3943645783050744,0,50,30.14834342887944,14.56239625494732,9.477841528597246,1,0.2457002457002457,59,14.496314496314495,664.0625,796.875,132.8125,8.326530612244898,222479106.3219676,222479106.32196763,737.8246623688567,738.27,30.11137426300682,0.5996775089859717,39.06000000000006,23.77405478565109,11.065921375921375,-0.0479852579852579,19.530000000000086,7.819999999999936,0.0,0.2140013803814722,-0.3440745473711676,0.0813371172569302,10.309786613633898,41.37092605916202,571.884260292301,17.001883372271557,240.5488504950258,314.33352642500364,0.7652662865169044,43.35132282092536,56.648677179074646,0.1664585934248855,0.5190165917743832,-31.209454048625105,-1294242025.947015,116.56869103116696,0.2,9.601656113823468,0.6593294405143899,0.0501581868517726,4376926.051325509,0.0033333333333333,0.0,221863.5462213609,1.8779765000962265e-06,12,1
403,743.4655831265509,656.24,824.21,80.85251800150941,72.79698135183995,91.42996464708034,3.509652121402922,0,50,31.78534705501694,15.04018708699929,10.106236870134428,1,0.2487562189054726,60,14.925373134328357,671.875,804.6875,132.8125,8.574468085106384,223160796.4689,223160796.4689,743.4655831265509,746.0799999999999,31.74588664619036,0.6059703300763133,42.96000000000004,25.09458995499018,11.150124378109451,0.1603233830845769,19.530000000000086,7.810000000000059,0.0,0.091636770278193,-0.2203097950851354,0.0866044198583026,10.647665653221518,43.67200236940087,569.4542404974782,39.011754411640446,269.2957036488626,261.14678243697506,1.0312043714873425,50.76812486043669,49.2318751395633,0.1739857800083647,0.5248463396613489,-28.25782144910951,-1302182970.1882796,67.66566161825378,0.2780569514237856,7.5624290974813455,0.7127758845350953,0.0731101900484747,4446042.32626194,0.0033500837520938,0.0,222474.1366156592,2.575828724630857e-06,12,1
397,755.0413853904282,656.24,828.11,79.62926756831469,72.45414256560119,91.42996464708034,3.6476211058729286,0,46,33.98510303245161,14.50707676489741,9.641397989260488,0,0.0,53,13.383838383838384,687.5,820.3125,132.8125,9.232558139534884,226782109.9223,226782109.9223,755.0413853904282,753.9,33.94227364803474,0.6161758775962793,42.96999999999992,26.946914960440083,10.850505050505053,0.1479797979797977,23.42999999999995,7.810000000000059,0.0,0.0141804459733707,-0.2502362273733854,0.1529340485344039,10.270494656338194,46.95201162641312,735.8812539088499,78.32683138758468,153.12339850950158,504.43102401176367,0.3035566632910561,23.28680231856392,76.71319768143609,0.1605351170568562,0.4977952728709532,-28.6205679716508,-1324300449.9914732,73.06950677858312,0.2476987447698744,7.861222492968943,0.6727432609680541,0.0680424866475095,4589833.085585962,0.006694560669456,0.0,226121.5226422668,2.2315493511230736e-06,12,1
437,699.3718397567444,605.46,1296.9,86.30960582421949,46.26416840157299,99.09820632246556,5.911934688313003,0,658,64.18270619922092,72.96253386570028,69.13866488541257,11,2.522935779816514,125,28.6697247706422,609.375,773.4375,164.0625,10.658536585365852,215541931.01887268,215541931.0188727,699.3718397567444,691.4,64.1092285492599,0.6678975120704063,58.59000000000003,36.096916356715866,23.54442660550459,-0.1523165137614678,27.34999999999991,11.720000000000027,0.0,46.946344579508,5.606676801992869,0.005067208100433,51.65145737318607,74.6389074232532,1772.580139599945,462.9131279722346,398.07261658899,911.5943950387202,0.4366773411019949,30.394948720152023,69.60505127984797,0.4229508196721311,0.6380136570099255,-8.955720095984596,-1742873298.357123,26.50240382601981,0.9220672682526662,4.3627790149916965,0.9176266256755128,0.2037921663592883,3990377.887217764,0.0065627563576702,0.0,214385.91604464644,0.000108914062301,12,2
433,702.3395788769321,605.46,1296.9,85.89068596508639,46.26416840157299,99.09820632246556,5.620038086020024,0,658,60.66067768688418,77.10016932080964,73.23277541882501,10,2.314814814814815,137,31.712962962962965,609.375,781.25,171.875,10.825,215180260.8938231,215180260.8938231,702.3395788769321,695.3000000000001,60.590590225366704,0.6596247930386119,54.690000000000055,34.20349286787005,24.36824074074074,-0.1537037037037036,27.340000000000032,14.33271176185866,0.0,54.61533355547749,5.910369088496454,-0.0429017184954352,54.58115345430224,66.18408662557798,1056.4250619545096,355.2031823945457,164.99238082497288,536.2294987349911,0.307689862669255,23.52926878558184,76.47073121441818,0.5634266886326195,0.6659466650458356,-9.543308046440542,-1677529677.687955,25.675356350303257,0.943116240725474,4.2500956630106055,0.7895164977829258,0.208315479377187,4009084.9832231663,0.0065952184666117,0.0,214038.42319626312,0.0001147546257854,12,2
436,694.0585357695244,605.46,1296.9,86.90568638045168,46.26416840157299,99.09820632246556,5.547259842148995,0,658,60.16067795099211,76.87696743195018,72.98373528273443,10,2.2988505747126435,136,31.264367816091955,601.5625,757.8125,156.25,10.13953488372093,211603120.08811027,211603120.08811027,694.0585357695244,687.49,60.0916467430004,0.6402622660426959,47.85499999999991,32.30134477745073,24.40671264367816,-0.1436781609195402,23.43999999999994,13.66999999999996,0.0,59.52371095117424,6.338850540847367,0.0084650731858744,54.42272089411062,65.39710844928628,1284.0439841016532,169.451295853104,244.4665765376136,870.1261117109357,0.280955338826595,21.93326576740459,78.06673423259542,0.533112582781457,0.6630304844236682,-9.529876024528196,-1645439425.5752485,25.98011848511063,0.9312344656172328,4.251542166341141,0.7416746408067119,0.2046331380027032,3915534.738781584,0.0033140016570008,0.0,210462.9578768332,0.0001137359026108,12,2
437,691.3641403300362,574.21,1296.9,87.3819565297737,46.26416840157299,104.4913881680918,6.407434660280887,0,660,67.81392364600661,86.27152712003732,82.19466753153245,12,2.752293577981652,129,29.587155963302752,585.9375,765.625,179.6875,11.81081081081081,210884217.18424085,210884217.18424088,691.3641403300362,687.49,67.73628890544772,0.6597415696108061,54.409565135542266,36.945348794174045,26.50110091743119,-0.0268807339449539,27.33999999999992,13.670000000000016,0.0,44.61436862274238,5.447803023550467,-0.0862953735501483,61.07325723331664,73.94263811527124,1154.1200463003072,131.34231361879512,204.12145441101424,818.6562782704979,0.2493371880592468,19.957557530691435,80.04244246930855,0.4842454394693201,0.6620576164883641,-8.464925921392558,-1712471281.620033,24.66589773978644,0.9659751037344398,4.131732900500059,0.7072911208948884,0.2191137065421761,3902036.418883469,0.0033195020746887,0.0,209568.9549679608,0.0001471993209379,12,2
432,700.1861282843664,574.21,2222.6,86.54599189940394,26.99541078016737,104.4913881680918,6.9623822664362525,0,1492,97.4683603943906,101.8743898925327,98.52540402276514,12,2.784222737819025,115,26.68213457076566,601.5625,789.0625,187.5,12.342857142857143,215887120.3832851,215887120.3832851,700.1861282843664,695.3000000000001,97.35548443249932,0.6596191807611657,58.59249999999986,41.54254940379489,26.337401392111364,-3.516426914153132,27.34999999999991,11.720000000000027,0.0,143.21881221686343,10.157085279993357,-0.0586961527074747,72.07681005384727,117.49508929484348,1511.4127484781343,245.5584088808862,405.6316610590708,860.2226785381775,0.4715426263213408,32.04410241925062,67.95589758074938,0.5333333333333333,0.6934944261653735,-4.138375350955329,-2059040059.275897,5.811097168370713,2.998341625207297,1.9294979114515696,0.6797758781581094,0.5915104538978538,4077685.8872170513,0.0033167495854063,0.1393034825870646,213144.1912998248,0.0007067299918932,12,2
433,698.2362407677454,574.21,1484.4,86.51194265214514,40.42037186742118,104.4913881680918,6.3950971500502,0,746,67.54655422218349,71.12788587336935,67.70093039938527,9,2.083333333333333,115,26.62037037037037,593.75,781.25,187.5,12.371428571428572,213073172.12850708,213073172.12850708,698.2362407677454,699.21,67.46851080591763,0.6490194915412447,54.68999999999994,37.76734915158463,22.05379629629629,-1.745231481481481,27.340000000000032,11.720000000000027,0.0,58.69643218219202,5.849551934599601,-0.0061909772643472,50.33816383578585,81.18585613407258,1456.347223064784,429.7509900900874,375.9084898606165,650.68774311408,0.5777094986630343,36.61697537807757,63.38302462192244,0.5934521342726896,0.673010815534431,-7.077045561664745,-1659721012.8276403,8.498943085132826,2.599170124481328,2.462866010158644,0.6913385621652925,0.4353086685405848,3971412.0141000575,0.0033195020746887,0.0132780082987551,211499.22916823137,0.0002368132777677,12,2
384,782.1357552083333,710.9100000000001,863.24,76.80867390369737,69.50558361521709,84.39886905515465,2.72601901242486,0,44,27.55473653355069,14.705702513752156,8.896594410459539,0,0.0,57,14.882506527415144,710.9375,828.125,117.1875,7.529411764705882,235197552.31950003,235197552.3195,782.1357552083333,785.12,27.51883458145216,0.5724830377441754,35.15999999999997,21.226044108072923,11.718146214099216,0.0509921671018276,15.629999999999995,11.710000000000036,0.0,0.4093453021137394,-0.084297572399122,0.0575444383455969,10.412041082636668,37.55151676510914,538.1116814036407,89.24303645412041,118.62729337927443,330.2413515702458,0.3592139288893419,26.42806413725229,73.57193586274772,0.1768877763871505,0.51727365865828,-36.07155982746598,-1331844797.8902874,128.16671171223948,0.1971595655806182,10.020501772204858,0.7906279356505239,0.0453085748130018,4913397.737962437,0.0100250626566416,0.0,234531.4258323792,1.4395653795069272e-06,12,3
381,787.5612598425196,710.9100000000001,863.24,76.27981444509223,69.50558361521709,84.39886905515465,2.704301663583164,0,41,27.853309479035627,14.318301795806285,8.593530032833929,0,0.0,54,14.210526315789473,718.75,835.9375,117.1875,8.106382978723405,236611099.7824,236611099.7824,787.5612598425196,789.03,27.816732563086696,0.5794768666415345,35.14999999999998,21.831098848864368,11.46121052631579,0.0616842105263156,15.629999999999995,11.70999999999998,0.0,0.1254968185418579,0.0436997537587833,0.0940761147623146,10.137822368607944,38.06360801989775,363.4754110366155,74.48826727367884,49.10501107301836,239.88213268991836,0.204704746128356,16.99210921067839,83.00789078932162,0.1536534446764091,0.490180432052109,-36.51248570426259,-1334641794.958887,120.30325624076526,0.2040133779264214,9.770702187884076,0.7674503625153934,0.0471047564881644,4981364.872869431,0.0100334448160535,0.0,235945.59595001905,1.441728047366329e-06,12,3
380,790.0500789473683,710.9100000000001,886.6800000000001,76.05328398917996,67.66815536608472,84.39886905515465,2.8733669093634053,0,50,30.02031700324434,14.967248413317762,9.245169623348886,1,0.2638522427440633,59,15.567282321899736,718.75,851.5625,132.8125,9.047619047619047,237529630.5181,237529630.5181,790.0500789473683,789.03,29.980790564768373,0.5946879361675727,39.059999999999945,23.803872576177284,11.780105540897097,0.1133509234828494,19.529999999999973,11.709999999999924,0.0,0.2244831074564648,0.2716390253417724,0.0186120792497095,10.597128956567712,41.111308952992935,774.3225037545332,104.56721981491202,188.1897151556972,481.565568783924,0.3907873140326961,28.098280023821747,71.90171997617826,0.1502504173622704,0.503948348752589,-32.78869080605486,-1359137839.0809393,89.4439031188089,0.2472848788638262,8.610459374880982,0.8615274289431465,0.0586703800266724,5015954.785945722,0.0133667502088554,0.0,236839.9550687563,1.862488385570151e-06,12,3
377,794.5702387267904,710.9100000000001,886.6800000000001,75.63254022354198,67.66815536608472,84.39886905515465,3.02149642030627,0,50,31.692023145578435,15.243325100068647,9.128322042758567,1,0.2659574468085106,60,15.95744680851064,718.75,867.1875,148.4375,9.425,238393531.3384,238393531.3384,794.5702387267904,792.9300000000001,31.649963375028133,0.5966916312130277,42.97000000000003,25.648037768506075,12.21696808510638,0.0,23.430000000000064,11.71000000000015,0.0,-0.1500556479211332,0.0689394543369754,0.0898529334039231,10.793020522541404,43.500337586273496,545.2714238484034,41.58694595711926,178.43950834091865,325.2449695503655,0.5486311089994785,35.426842829854536,64.57315717014546,0.1606694560669456,0.4720850666172015,-34.3541061673129,-1359426776.336845,135.12798235706205,0.2077051926298157,10.097399383322369,0.8347923881047473,0.0426734846691251,5075241.255482484,0.0067001675041876,0.0,237620.69075110345,1.563135911985337e-06,12,3
375,800.9589066666666,710.9100000000001,886.6800000000001,75.02127941667463,67.66815536608472,84.39886905515465,2.9038669023587635,0,50,30.763696060868405,15.031438471196587,9.214679789516138,1,0.267379679144385,59,15.775401069518717,726.5625,851.5625,125.0,8.333333333333334,240929644.2815,240929644.2815,800.9589066666666,804.65,30.722650417424745,0.5915222127406751,39.059999999999945,24.159815395555547,11.88532085561497,-0.2715240641711225,19.529999999999973,10.734999999999957,0.0,0.0495731930839227,-0.0841428087899437,0.0417108408237556,10.641333748931284,42.18497370740957,649.9458028653605,118.12705410371797,224.82625292779005,306.99249583385256,0.7323509726748119,42.27497685091121,57.72502314908879,0.1567973311092577,0.4849148062157822,-30.31794951208827,-1377281264.2482245,48.02547110989052,0.4073455759599332,6.3915497447099705,0.6493331680957228,0.0922683268602839,5156819.841088707,0.003338898163606,0.0,240348.01756738784,3.62404983334114e-06,12,3
376,797.4782978723404,707.0,886.6800000000001,75.35575393614688,67.66815536608472,84.86562942008487,3.0156676245345317,0,58,31.498803791493977,15.437448459293176,9.581821076026038,2,0.5333333333333333,63,16.8,726.5625,851.5625,125.0,8.744186046511627,239497400.4672,239497400.4672,797.4782978723404,800.75,31.45688919702368,0.5931573644986229,39.06000000000006,24.740826165685828,12.113973333333332,0.0312533333333334,19.529999999999973,9.759999999999993,0.0,0.2036809101432166,-0.2029426981855556,-0.0137429042271003,10.930485829511978,43.18418414328223,963.8718598458356,298.7858510084244,211.75232274265807,453.3336860947531,0.4671003484581087,31.83833668562762,68.16166331437236,0.1671541997492687,0.4512229377143886,-34.1339293446057,-1365811740.560864,120.44151373963096,0.2443514644351464,9.564964757661992,0.5929089738479687,0.0469984245939284,5112922.321806211,0.003347280334728,0.0,238810.64490318383,1.958496157181953e-06,12,3
376,798.2677659574468,707.0,886.6800000000001,75.2977049251119,67.66815536608472,84.86562942008487,3.209623827420088,0,58,33.71286104435138,15.337028760486822,9.472212087071314,2,0.5333333333333333,63,16.8,718.75,851.5625,132.8125,8.173913043478262,240025225.1136,240025225.1136,798.2677659574468,800.75,33.66800026460681,0.608918562520878,39.54750000000013,26.56800305568129,12.072319999999994,-0.0625066666666668,19.529999999999973,11.709999999999924,0.0,-0.0369909657615226,-0.095671200761295,0.0200255070827922,10.859315725513344,46.424015999966095,588.9516856157769,305.54006294113617,128.33310399607436,155.07851867856644,0.8275363028329688,45.28152472539985,54.71847527460017,0.2103505843071786,0.4310157782623126,-33.16858928154265,-1376181700.55272,108.95360681154862,0.2539682539682539,9.282035031620124,0.6857326635453616,0.0508003765092929,5127175.684183601,0.0066833751044277,0.0,239420.30391185317,2.135059970690044e-06,12,3
376,796.2627925531913,707.0,874.9599999999999,75.47111758725386,68.57456340861297,84.86562942008487,3.015986471579099,0,58,31.58055208163484,14.4405885660292,8.828217660932795,1,0.2666666666666666,53,14.133333333333336,718.75,843.75,125.0,8.355555555555556,238770946.7127,238770946.7127,796.2627925531913,796.84,31.53852870695649,0.5956080261956652,39.06000000000006,24.76358660593029,11.436826666666663,-0.0833333333333333,19.529999999999973,7.82000000000005,0.0,0.0084531290487368,-0.0709482723812763,-0.1255011716236801,10.224509855368677,43.47553263364545,622.4721175024606,216.67863480508976,143.75147733384196,262.0420053635289,0.5485818089905724,35.42478710557501,64.57521289442502,0.200920887400586,0.4255909551391981,-34.788618241299766,-1350331202.4207463,101.9624304768617,0.248113998323554,9.065790244578512,0.6973953235866462,0.0528272527781686,5096980.10079475,0.0067057837384744,0.0,238032.56137622072,1.9681488130197827e-06,12,3
378,794.7469312169313,707.0,874.9599999999999,75.60973309869011,68.57456340861297,84.86562942008487,2.950248537529055,0,58,30.841083086399635,14.208404814545696,9.114457535088167,1,0.2652519893899204,50,13.262599469496022,726.5625,851.5625,125.0,8.590909090909092,239111966.8056,239111966.8056,794.7469312169313,796.84,30.800260986328617,0.5923380864770573,35.14999999999998,23.93999580078944,10.90989389920424,-0.1243236074270557,19.529999999999973,7.819999999999936,0.0,0.1148062275812069,-0.0179109339561215,-0.0312227797879705,10.059825583047136,42.43989539481785,809.5626390764602,115.6462797717992,460.4189224551029,233.49743684955808,1.9718371587596908,66.35078079387921,33.64921920612078,0.1601334445371142,0.4277204075725396,-35.18160543534913,-1350652310.9948134,83.2370055450244,0.2704507512520868,8.31282331362378,0.7398618760688014,0.0602743236442967,5076287.395123322,0.006677796327212,0.0,238450.72812586592,2.211930139103015e-06,12,3
379,790.6351451187335,707.0,874.9599999999999,75.99223726724529,68.57456340861297,84.86562942008487,2.8152534321909832,0,58,29.294107939407493,14.201863233821449,8.912031941192911,1,0.2645502645502645,47,12.433862433862434,718.75,851.5625,132.8125,8.23913043478261,237238769.21140003,237238769.2114,790.6351451187335,789.03,29.255435832858435,0.5824500891577158,35.15999999999997,22.871834921784167,11.067010582010582,0.1446825396825398,19.529999999999973,7.819999999999993,0.0,0.1530682224099786,0.1213843464226018,-0.0047294996506211,10.055021761053444,40.189377418866,820.5540077321299,379.7274339207178,327.446637551318,113.379936260094,2.8880474654717934,74.2801493839619,25.71985061603808,0.177257525083612,0.4170180362143925,-35.67891946679383,-1328351425.3269506,70.01588034524393,0.301255230125523,7.675508328908896,0.9112180422572363,0.0681531806364837,5023707.641319819,0.006694560669456,0.0,236642.74438470663,2.454465629292634e-06,12,3
379,791.6762005277044,730.4399999999999,874.9599999999999,75.88231721024462,68.57456340861297,82.14227041235421,2.660794172857345,0,42,28.000894483480806,13.315962980791891,8.254660704455619,0,0.0,40,10.582010582010582,718.75,851.5625,132.8125,8.613636363636363,237835078.1914,237835078.1914,791.6762005277044,789.03,27.96392959015912,0.577139053173362,37.1099999999999,22.347865442318,10.45732804232804,0.0206613756613758,19.529999999999973,7.814999999999998,0.0,-0.017638769821914,0.3425620447451581,-0.0451562349144627,9.428275910830012,38.46047057823544,598.1314475140136,292.8981956497661,200.57143965813725,104.66181220611028,1.91637652196536,65.71087469439318,34.2891253056068,0.2137787056367432,0.4226754462975639,-39.6092510380148,-1327619424.5967531,136.22760341277234,0.2040133779264214,10.22258470862755,0.8896733255597334,0.0410540783393658,5034144.329132623,0.0066889632107023,0.0,237191.26947249623,1.521128351371737e-06,12,3
381,786.3414698162729,714.81,851.5200000000001,76.38548852971206,70.46223224351746,83.93838922231083,2.525595234712334,0,42,25.858319397139507,13.295857981856017,8.134394291367512,0,0.0,41,10.789473684210527,718.75,843.75,125.0,8.282608695652174,235838925.6444,235838925.6444,786.3414698162729,785.12,25.824362298580656,0.5550516698026602,35.14999999999998,20.9112389691446,10.525473684210528,0.1027894736842106,15.629999999999995,7.819999999999936,0.0,-0.3388038020707378,-0.0831855656755906,0.001681207594984,9.413704995674706,35.33677294750288,450.8626138218806,182.83112781454483,168.40551647299864,99.62596953433714,1.690377692283897,62.83049763354652,37.16950236645351,0.2141363446256796,0.4647625735439779,-39.20850504648104,-1306515993.8292966,91.40853453992668,0.2412060301507537,8.690896870341064,0.6300814802524007,0.0554757181812376,4964355.2633861415,0.0033500837520938,0.0,235172.20643804013,1.7437969118552266e-06,12,3
379,792.1348812664908,714.81,863.24,75.83140151973308,69.50558361521709,83.93838922231083,2.574682973543504,0,42,26.784231426239035,14.13919974086827,8.733140648762213,0,0.0,54,14.285714285714285,734.375,851.5625,117.1875,8.063829787234043,238085212.3052,238085212.3052,792.1348812664908,792.9300000000001,26.748872689468737,0.5704199167694277,31.25,21.119014626743063,11.128835978835978,-0.1033333333333334,15.629999999999882,7.82000000000005,0.0,0.0304154245119341,-0.0184759165818537,-0.0202507235547079,10.01090772481702,36.53179208188205,369.1191720240254,35.581415597407904,107.85651957901636,225.68123684760116,0.4779153158038127,32.33712450864499,67.66287549135501,0.2237061769616026,0.4509544152205942,-38.443023501037054,-1325886490.565748,90.7515420047954,0.2573099415204678,8.616685480939118,0.5421685172181784,0.056386757571364,5037967.577558239,0.0033416875522138,0.0,237394.79076865411,2.0505841568404494e-06,12,3
353,862.2390644702643,708.94,982.36,69.74810427450171,61.077405431817255,84.63339633819504,3.425235594103232,0,82,40.98800618990792,27.36612696696724,15.988195344342486,21,5.965909090909091,165,46.875,757.8125,929.6875,171.875,11.387096774193548,263031405.97869176,263031405.97869185,862.2390644702643,865.18,40.92990834895542,0.7577133071949593,52.73000000000002,32.196919317006625,22.22630681818182,-0.1442613636363632,27.33999999999992,19.529999999999973,6.707848905062292,0.8416678041312706,-0.4775168653950238,-0.0153520612707011,19.378050298572752,54.63080147200702,1140.3649003971968,458.84385251706567,243.8324280716971,437.688619808434,0.5570910849325185,35.777681236718514,64.22231876328148,0.2471169686985173,0.4955659314815864,-26.162417012512982,-1584968712.266332,73.07615289344156,0.3066776586974443,7.693314856005165,0.8275300877303748,0.0738041346050726,5984868.100870183,0.0098928276999175,0.0,262075.50711115112,3.624514395998792e-06,13,1
351,860.4238331876458,693.32,949.16,69.9116414864933,63.21378903451473,86.54012577164944,3.643904942042669,0,80,42.4491789852726,28.77683719550089,16.275156824068123,26,7.428571428571429,178,50.85714285714285,773.4375,937.5,164.0625,10.636363636363637,260486216.1025632,260486216.1025632,860.4238331876458,867.14,42.38866693884936,0.75067866347662,51.21322093168476,32.55577966656156,23.748314285714287,0.3459714285714283,25.379999999999995,21.47999999999996,7.7081085300361565,1.5356910786058773,-0.8634774253147256,-0.0691930190498698,20.37595540542857,56.468451673154654,1387.343210502415,545.0508954798975,610.4004292454462,231.8918857770718,2.6322629927303787,72.46895387251962,27.531046127480387,0.2556016597510374,0.4979135008834341,-23.52171260474753,-1568286371.752354,42.24659665271807,0.5182724252491695,5.943083734315616,0.922572013065439,0.1100253336493042,5965451.041020607,0.0099667774086378,0.0,259712.2225768577,5.605544676602691e-06,13,1
355,851.6742032865751,693.32,949.16,70.62625681035321,63.21378903451473,86.54012577164944,3.6297147722260346,0,80,41.73771906684928,28.56293198091353,15.502453221564064,23,6.497175141242938,192,54.23728813559322,757.8125,921.875,164.0625,10.757575757575758,258115557.89934477,258115557.89934477,851.6742032865751,857.37,41.67889209037317,0.7489594105612684,51.663329066629785,32.63794431705312,24.0040395480226,-0.0607062146892655,25.389999999999983,21.49000000000001,7.809999999999945,1.0730415170866543,-0.7534596192584379,-0.0553669718380542,20.22558469122787,55.452683521218674,587.3799820529538,232.7367422694705,251.2822251166385,103.36101466684478,2.4311122131160983,70.85493164061192,29.145068359388084,0.2620232172470979,0.5151380787206176,-25.33902013543775,-1562190137.8333418,86.0837564307073,0.3053941908713692,8.131940721956541,0.7360070877477825,0.0664351101831996,5841752.990936262,0.0033195020746887,0.0,257207.2551313952,3.5454012779831887e-06,13,1
352,859.1048357009494,693.32,949.16,69.99234500881461,63.21378903451473,86.54012577164944,3.3497329213055504,0,80,39.28287274698929,29.503817851582163,16.220643232321294,27,7.6923076923076925,192,54.70085470085471,781.25,921.875,140.625,8.8,260339157.36714476,260339157.3671448,859.1048357009494,865.18,39.22703352509238,0.7423078065241508,51.14121544952002,30.36501020155657,24.66,0.2670655270655271,24.13470381648653,23.42999999999995,7.809999999999945,1.4488354645406003,-0.7637756818404132,-0.0392632796323372,20.89127583747,51.47662359163672,528.5955001381054,43.575236481902586,205.60525899915496,279.41500465704786,0.7358418680897738,42.39106577718045,57.60893422281955,0.2585992540406133,0.547270258718374,-24.2669272971961,-1567310713.3267272,50.96496595517419,0.4116182572614107,6.5009804685469215,0.6403699833769727,0.096655429522425,5939023.758128014,0.0033195020746887,0.0,259489.4401807905,4.736086364575267e-06,13,1
352,854.4131426115617,693.32,949.16,70.37595210980648,63.21378903451473,86.54012577164944,3.341210024373193,0,80,39.19683379955595,30.342563538374502,16.441520293726533,32,9.116809116809115,204,58.119658119658126,765.625,921.875,156.25,10.057142857142855,257506953.54486084,257506953.54486084,854.4131426115617,857.37,39.14111687899653,0.731960042248142,49.309999999999945,30.540682845981504,25.51700854700855,-0.2448148148148146,25.389999999999983,23.43999999999994,6.374342852232871,1.1753300880633812,-0.5204229706503984,0.019377230689685,21.485361825908555,51.09953803147162,1143.912882322877,83.55131686154496,537.8947301088061,522.466835352526,1.0295289455949304,50.72748274073703,49.27251725926299,0.26,0.5513595289234734,-24.12165547217992,-1546579510.7828655,53.42390261258003,0.4203502919099249,6.630435720615511,0.812296089908781,0.0942789539524601,5873651.680548095,0.006672226855713,0.0,256660.2551442983,4.99849169147228e-06,13,1
352,853.8990426356391,693.32,949.16,70.42014068723284,63.21378903451473,86.54012577164944,3.3595773431756744,0,80,39.4471397278873,30.44230500346104,16.401052313871784,31,8.831908831908832,199,56.69515669515669,765.625,914.0625,148.4375,9.77777777777778,257204721.37323123,257204721.3732313,853.8990426356391,855.42,39.39106700625488,0.7278484526967515,48.819999999999936,30.65086574072146,25.661367521367524,0.1557834757834759,25.389999999999876,23.43999999999994,7.809999999999945,1.0794051613578448,-0.472962930106721,0.0235821605829531,21.556407485173143,51.45361952045842,1046.758467715522,263.96950687396645,427.4356897848973,355.35327105665823,1.2028472075517944,54.60420511364552,45.39579488635449,0.2768974145120934,0.5396230368318078,-24.98548546617293,-1540830626.979193,65.84920972984514,0.343906510851419,7.269553052114827,0.8404491162872694,0.081220447495551,5867913.5211761845,0.006677796327212,0.0,256320.07915116352,4.718303649072153e-06,13,1
335,904.8231932577744,611.53,1039.4,66.63745160376705,57.725610929382334,98.11456510719016,4.86857953308712,0,394,61.33398140830437,52.936621401477765,36.98394331194112,92,27.54491017964072,210,62.87425149700599,820.3125,1023.4375,203.125,13.958333333333334,275522639.03414226,275522639.03414226,904.8231932577744,910.46,61.24236973445391,0.7963312165293388,70.33999999999992,46.648869625683815,37.92847305389222,0.0584730538922154,35.16999999999996,31.25999999999999,1.9500000000000453,1.3395252901313688,-0.7257305583310351,-0.2248916871699203,37.48798293431471,78.21998265344337,1351.92878601622,195.0660234740056,284.73493717494483,872.1278253672693,0.3264830325245472,24.61268063890636,75.38731936109363,0.4433416046319272,0.5716994443503184,-15.662733935236885,-1863368850.622161,49.11173595535139,0.5827814569536424,6.013807614516713,0.581843735624307,0.1131052065613776,6627853.511607061,0.0033112582781456,0.0,274419.4843831736,1.8072769621344697e-05,13,2
329,899.1638909023503,611.53,1039.4,67.03799699295429,57.725610929382334,98.11456510719016,4.7264691964592815,0,394,59.53786913213622,52.20532294591574,36.91338206720403,84,25.60975609756097,201,61.28048780487805,804.6875,1000.0,195.3125,13.16,267157766.76751387,267157766.76751387,899.1638909023503,906.56,59.44731718751454,0.8141892803552622,74.24999999999989,46.27046001383201,36.97231707317073,0.3633536585365848,37.11999999999989,29.31,3.909999999999968,1.1579604220054565,-0.5799112832391388,-0.1871718725330592,36.97024383079317,75.64864038885602,1263.9014943311126,105.48402372066953,273.95102562798127,884.466444982462,0.3097359172663847,23.648730494682475,76.35126950531753,0.3153878762187367,0.5615997731167999,-15.852835915948251,-1729185005.701828,36.79706176788306,0.6926994906621392,5.383702416179005,0.5793928457917685,0.1376869413602255,6536425.824274362,0.0033955857385398,0.0,265877.42375220865,2.130543455566018e-05,13,2
339,891.41129759504,611.53,1039.4,67.60196726427866,57.725610929382334,98.11456510719016,4.601138065907011,0,394,57.39308769305977,50.42534389014951,36.08372496705962,82,24.2603550295858,203,60.05917159763313,773.4375,1000.0,226.5625,13.56,270487541.0837955,270487541.0837955,891.41129759504,898.74,57.30837460232087,0.8205867071696616,78.14999999999998,45.11881528544004,35.277928994082835,-0.0982840236686391,35.17000000000007,27.360000000000014,3.268802685968865,1.0572336792709027,-0.5089326238723657,-0.025083866062672,35.70889782185846,72.8890090907715,1949.4189505774352,390.5283758049752,417.6305197550615,1141.2600550173984,0.3659380856440251,26.7902395789403,73.20976042105968,0.2522821576763485,0.5875127987525586,-16.047690671916207,-1804994580.9033856,46.5687704189942,0.6013289036544851,5.896160794351048,0.7899240302465247,0.1164512986984576,6420757.6656663455,0.0066445182724252,0.0,269235.1955727758,1.8612489534452103e-05,13,2
341,888.0953150386191,728.76,988.61,67.81692289860254,60.69127360637663,82.33163181294253,4.2525097544166695,0,152,53.91549359191605,39.766800696273336,26.20575629325762,66,19.411764705882355,190,55.88235294117647,773.4375,984.375,210.9375,14.826086956521738,269939570.763147,269939570.763147,888.0953150386191,893.1489551487184,53.83638057264256,0.835424628166307,74.2399999999999,43.414492144018205,29.94455882352941,0.040205882352941,36.85104485128159,23.504065951814997,2.986304415003474,-0.2782600058743516,-0.3762134201529387,0.0067499865070377,28.160803508440928,70.8571100474671,2101.285416897961,402.60580628522376,603.835599734977,1094.8440108777602,0.5515266044620082,35.5473507754158,64.45264922458419,0.2516556291390728,0.5489064045107823,-19.344390601373487,-1742090557.360004,74.80259140442288,0.3777961888980944,7.469372432283071,0.8283195360363038,0.0791600845942122,6371926.288518311,0.0066280033140016,0.0,268917.1730199271,5.521614263114723e-06,13,2
335,898.6149850128608,703.0999999999999,1056.6,67.12922735461127,56.78591709256105,85.33636751528944,5.05925452002321,0,101,64.4698415013442,38.83756595504701,22.70221389937539,73,21.856287425149706,203,60.77844311377245,781.25,992.1875,210.9375,13.4,271903702.97674906,271903702.976749,898.6149850128608,902.31,64.37354594124525,0.8036489507553269,83.65768847845743,50.90837977046103,31.535838323353293,-0.3099101796407185,41.00999999999999,27.340000000000032,5.859999999999957,0.2839721400905866,-0.4396864411788412,-0.2464446662304453,27.502634380718213,86.92713056656952,1278.7733076611412,321.00278009138697,560.1522107110319,397.6183168587224,1.408768628005785,58.48501228497409,41.51498771502592,0.2398001665278934,0.446620176484193,-18.911912880188098,-1736810045.752503,50.98144200362428,0.45,6.475085908375072,0.7151103008675547,0.0990165795126351,6553711.486240025,0.0066666666666666,0.0,270968.89434372203,6.613854613866985e-06,13,3
343,878.4304235902689,703.0999999999999,1011.7,68.63934368657807,59.306118414549765,85.33636751528944,4.915795204823625,0,150,60.42140021555453,36.4580554928911,22.73095551897469,63,18.421052631578945,188,54.97076023391813,773.4375,992.1875,218.75,13.72,265921078.11409077,265921078.11409077,878.4304235902689,880.83,60.3332580822442,0.8026732499898005,84.51290842749529,48.336399696522726,28.53076023391813,-0.2969590643274852,41.020000000000095,23.44,5.859999999999957,-0.1902626059934191,-0.3974821000867956,-0.2750261549505893,25.816654356858947,81.45545755709007,1985.0152191466652,528.4842323840389,761.1822965246997,695.3486902379269,1.0946771126645058,52.25994527013458,47.74005472986544,0.2296173044925125,0.4511977051353535,-18.78814998734037,-1698615383.8192365,48.52949046657002,0.4796003330557868,6.311830416084204,0.4120332938100387,0.1036143226868872,6254201.927543196,0.0033305578684429,0.0,264965.87733537494,8.028168275924555e-06,13,3
347,874.7348227017496,703.0999999999999,1011.7,68.92678841937133,59.306118414549765,85.33636751528944,4.895398459018604,0,150,60.21344430983444,34.80693967349714,22.083257028329903,55,15.895953757225437,180,52.02312138728323,781.25,1007.8125,226.5625,14.458333333333334,266765348.4573065,266765348.45730647,874.7348227017496,874.97,60.12661882226101,0.8151590388657619,82.02999999999997,48.54967777244976,26.930693641618497,-0.2088439306358384,41.00999999999999,21.485000000000014,5.859999999999957,-0.2712398444707835,-0.2684348814581471,-0.189432986664354,24.64742347830081,81.50964524023138,3276.084265910931,1629.969963234862,1072.3310495819912,573.7832530940775,1.86887826335038,65.1431706679612,34.85682933203877,0.2213047068538397,0.4457639956626278,-19.51577992951688,-1714419996.2719922,62.31138791450888,0.4099173553719008,7.072387490639812,0.4441275681703451,0.0866398054349544,6204225.324363788,0.0033057851239669,0.0,265877.0092305812,6.461198949735153e-06,13,3
349,866.9247114043264,703.0999999999999,996.06,69.50452551365092,60.23733510029517,85.33636751528944,4.588565815056375,0,150,56.007885132666175,33.812689503871624,21.213251199261517,46,13.218390804597702,180,51.72413793103448,773.4375,968.75,195.3125,12.03448275862069,263385536.2325405,263385536.2325405,866.9247114043264,865.1999999999999,55.92758704817298,0.8065614093225052,74.22000000000003,44.33841696879764,26.35505747126437,-0.1347126436781605,37.10000000000002,21.480000000000015,5.859999999999957,-0.1219721877307336,-0.143894062192407,-0.1054825098530192,23.943418495745902,75.50151723512205,2915.9556380943427,1273.9014538257811,852.4352779650063,789.6189063035554,1.0795527705327033,51.91273748038443,48.08726251961558,0.2419221209610604,0.4607222816307447,-20.15553992924643,-1677327924.2502255,70.35969197673934,0.3814262023217247,7.414762896485508,0.5680194791652549,0.0804789193852607,6083887.473503884,0.0066334991708126,0.0,262478.547282989,5.5132923480407e-06,13,3
352,858.465775043577,703.0999999999999,964.81,70.12453409757471,62.188410153294434,85.33636751528944,4.128585600572831,0,150,48.62475258756336,31.99297200596838,19.83765359990952,36,10.256410256410255,183,52.13675213675214,773.4375,953.125,179.6875,11.733333333333333,260241040.0602864,260241040.0602864,858.465775043577,859.3425,48.55563421205892,0.7803609365733256,62.98749999999996,38.10066773659296,25.12247863247864,-0.1836182336182337,33.202499999999986,21.49000000000001,6.063547494518616,0.1614027025116953,-0.5008572920440328,0.1947782733763689,22.65436906091672,64.92697968375919,1487.3409636924089,709.3667216121061,362.010235708764,415.9640063715386,0.8702922131811011,46.53241921490212,53.46758078509786,0.2654500207382828,0.5132783426021882,-21.344984045679556,-1624719055.8770175,62.9786861339032,0.4053156146179402,7.106857910393899,0.6312499034808736,0.0860579056987947,5947068.424847183,0.0066445182724252,0.0,259307.56690430653,5.822805583768151e-06,13,3
349,865.8138670603669,689.43,968.72,69.51693917886467,61.93740193244694,87.02841477742484,4.006650023396831,0,150,47.42913668741431,33.36610500611916,20.139765104103898,41,11.781609195402298,200,57.47126436781609,781.25,960.9375,179.6875,12.464285714285714,262404978.69192117,262404978.6919212,865.8138670603669,869.11,47.36113789017096,0.7655041414785071,60.55000000000007,36.63981415397883,26.624281609195407,0.2693965517241379,31.25,23.43999999999994,7.809999999999945,0.8415801298154277,-0.6990516494200174,0.0791973445012101,23.62660077355834,62.77602846400648,811.9616349813268,164.12280671470705,352.4914547717242,295.34737349489563,1.193480919097512,54.41036248396266,45.58963751603734,0.2688796680497926,0.5475879207835642,-20.75324489002308,-1639372690.4779887,51.765435962070654,0.4684385382059801,6.5125866152843335,0.7431688698318386,0.0984625573273102,6044199.534121361,0.0066445182724252,0.0,261339.6674401284,7.021154040004339e-06,13,3
346,870.6956338786193,689.43,972.62,69.10468672438355,61.68904608171742,87.02841477742484,3.7575201239185247,0,82,45.3253934587003,32.33082182884018,18.426784548808936,40,11.594202898550725,199,57.68115942028985,765.625,937.5,171.875,11.161290322580646,263015131.84773487,263015131.84773484,870.6956338786193,874.8985185185186,45.25984694073489,0.7505477667464294,59.94527777777785,35.51280213579441,26.58420289855073,-0.0905797101449275,29.361481481481405,23.44000000000005,6.29672000000005,0.8669881616149837,-0.6069996927564646,-0.0577399129342518,22.89445808678665,59.871749375513936,795.26564404434,119.02370939586584,331.85244995527853,344.3894846931956,0.963596348625203,49.07303628364647,50.92696371635353,0.2495840266222961,0.5435911918729781,-22.88625409139873,-1621842742.8472896,80.77859762954074,0.3130724396336386,7.901298749398652,0.85981772078358,0.0718303447201234,6110602.241701006,0.0066611157368859,0.0,262152.92608149967,4.688033388115786e-06,13,3
412,731.880152183901,574.2199999999999,957.04,82.99059094991577,62.69330435509488,104.48956845808227,9.111112286568405,0,175,81.84702013159153,45.85409160969933,30.812830616057287,87,21.16788321167883,246,59.85401459854016,554.6875,914.0625,359.375,20.6,223440467.713738,223440467.713738,731.880152183901,721.685,81.74763087801199,0.8033490203002138,127.4475,69.12880906224201,33.99231143552311,-0.5369829683698298,63.47500000000002,27.33999999999992,-7.819999999999936,-0.8263513546321661,0.3411030761887394,-0.02319235471099,32.46103010121104,111.10423454401084,5178.671906572098,143.98627768215152,482.1205765949991,4552.565052294947,0.1059008649095441,9.575981742107254,90.42401825789274,0.1994183631076028,0.4918569061504556,-10.67300527846514,-1676406454.1278436,26.81293251797328,0.951747088186356,4.688800105188938,0.9073911328791316,0.1764319200455824,4435935.935685828,0.0099833610648918,0.0,222587.3229070427,2.0097144965359247e-05,14,1
408,735.5600980392157,574.2199999999999,914.07,82.52279793603215,65.64048705241393,104.48956845808227,8.874922857690883,0,177,79.59837314519292,46.70884029990642,31.224433938581832,91,22.35872235872236,250,61.42506142506142,562.5,914.0625,351.5625,20.4,223326564.1036,223326564.10360003,735.5600980392157,729.5,79.50076627445601,0.8047236836212788,126.95000000000005,67.52328960015379,34.772776412776416,0.1343488943488942,61.51999999999998,27.340000000000032,-9.759999999999993,-0.9323282690674844,0.223840444758776,0.0133609712244845,33.068650956932004,107.6023528488636,5233.272775680582,155.09746675206293,463.85277095058296,4614.322537977936,0.1005245660945604,9.13424099666332,90.86575900333668,0.2037578288100208,0.5033274424616919,-11.868786373452616,-1653576495.7867389,54.692412847292346,0.4816053511705686,6.497539483724517,0.9147409748929308,0.1114497438481397,4471909.680860048,0.0100334448160535,0.0,222481.0532490916,1.1826423797789212e-05,14,1
407,736.1340294840295,544.9300000000001,914.07,82.43740092301151,65.64048705241393,110.10588515956177,8.785321061326917,0,228,78.67635518690902,49.29960332677474,33.28713783912474,95,23.39901477832512,257,63.30049261083743,562.5,914.0625,351.5625,22.61111111111111,223063704.2707,223063704.27070004,736.1340294840295,730.48,78.5796417450816,0.8056914952451552,119.14,66.3320403986743,36.40256157635468,0.2838423645320197,60.53999999999997,27.350000000000023,-9.759999999999993,-0.8405970390753787,0.2096520807634628,0.0679106312524177,34.90251592696419,105.64919362191716,5477.631994407211,178.15663741125962,611.7708018145194,4687.704555181433,0.1305054093347914,11.54398804792832,88.45601195207169,0.20418410041841,0.5033980474366271,-11.29223850923666,-1653556141.3041427,38.73842404087375,0.6666666666666666,5.5205485221574895,0.9150100078438173,0.1414087673531249,4470391.788009322,0.0100502512562814,0.0,222008.8125296608,2.2129666603906776e-05,14,1
407,737.1657002457002,544.9300000000001,914.07,82.22479554546005,65.64048705241393,110.10588515956177,8.292580533216842,0,228,74.63800813633877,47.7785387596759,32.28936724504972,94,23.15270935960591,255,62.80788177339901,585.9375,914.0625,328.125,20.35,223430958.6318,223430958.6318,737.1657002457002,730.48,74.54625885994106,0.7989644453931245,110.35500000000002,62.57528871288084,35.25270935960591,-0.4618226600985222,54.690000000000055,27.34999999999997,-7.819999999999936,-0.6921074726879608,0.2344566232679286,0.0095271872198858,33.824632109561804,99.98779315383028,3388.876984662239,106.1588714209886,594.8975024474848,2687.8206107937654,0.2213308061030904,18.122101317438496,81.8778986825615,0.2171189979123173,0.5301826865444251,-10.860029113497705,-1660626986.2977982,29.004815709852508,0.8595317725752508,4.836687286931196,0.8788602174907711,0.1707657678214205,4470151.704752436,0.0100334448160535,0.0,222589.26787822944,2.786743317480517e-05,14,1
406,740.010763546798,544.9300000000001,914.07,81.7839923231367,65.64048705241393,110.10588515956177,7.608410731315127,0,228,69.07023617730286,45.59600347983727,30.48391727289083,93,22.96296296296296,247,60.98765432098765,609.375,890.625,281.25,16.24,224264200.1449,224264200.1449,740.010763546798,734.38,68.98512186748798,0.7913382615016508,99.12250000000006,57.69138100900288,33.94143209876543,0.3375802469135806,48.83000000000004,27.33999999999992,-3.909999999999968,-0.5874171328576092,0.2290417169216088,0.0644131197924303,32.28023636358496,92.1920896361932,3897.697432658106,95.22866469761148,792.1890670486416,3010.279700911853,0.2631612825906766,20.83354566179758,79.16645433820241,0.2436378806841885,0.5483676232141375,-11.78870888122812,-1631879609.841654,34.67019454655373,0.7284878863826232,5.263542263779798,0.914528453691077,0.1499667759459342,4485804.103173758,0.0100250626566416,0.0,223326.34259701968,2.373686516349544e-05,14,1
404,742.3880940594061,544.9300000000001,910.17,81.41233969967017,65.92175088170342,110.10588515956177,6.962503928905959,0,228,63.66628406878799,44.50927561901038,29.74308270260914,84,20.84367245657568,242,60.04962779156328,632.8125,875.0,242.1875,14.428571428571429,224294111.6873,224294111.68730003,742.3880940594061,737.315,63.58744034309914,0.7781182053949401,89.83999999999992,52.590762547789424,33.145434243176176,0.0339205955334989,44.91999999999996,27.33999999999992,-3.899999999999977,-0.4171065672806877,0.2362766631947907,-0.0355476054636067,31.511922437835853,84.3432878095645,2312.4096151904887,156.48922064927592,620.802711221568,1535.1176833196448,0.4044007296424995,28.79525203219189,71.20474796780812,0.237160751565762,0.5596185912667523,-12.96517388518899,-1605839101.2091408,50.349662027565934,0.5652173913043478,6.058654012692062,0.9344893925727384,0.1132741648696599,4499915.050410949,0.0100334448160535,0.0,223647.0443228879,1.908664557810437e-05,14,1
404,741.8659158415842,539.07,910.17,81.38077989413972,65.92175088170342,111.30279926540152,6.489418243498736,0,287,58.13520730964866,45.24336613971826,31.286700988021643,80,19.851116625310176,241,59.801488833746895,632.8125,890.625,257.8125,16.16,223709495.0219,223709495.0219,741.8659158415842,739.265,58.063213217249086,0.7676443738437698,80.55999999999995,47.22677556121948,32.71900744416873,-0.0823821339950373,40.03499999999997,27.33999999999992,-1.949999999999932,0.0013371775086166,0.0382573630866328,-0.0035369319396786,32.03160409403895,75.71909268496555,2117.5230443879664,220.4872818117689,390.1130317427954,1506.922730833402,0.2588805807760586,20.564347780825027,79.43565221917498,0.2374581939799331,0.5890093502353347,-13.173282071298882,-1576585565.1950846,42.39037555553478,0.6728033472803346,5.576086442557269,0.9271343341376612,0.1286959008636319,4474312.173335248,0.0100418410041841,0.0,222855.50613965857,3.1199343614460694e-05,14,1
398,762.1422204024178,445.28,1419.8,79.94626087057478,42.25947316523454,134.74667624865253,9.821943696691942,0,773,99.26925877989568,107.32677916018248,82.9221981768176,193,48.614609571788414,294,74.05541561712846,609.375,882.8125,273.4375,16.583333333333332,235094775.25799903,235094775.25799903,762.1422204024178,750.6598989490881,99.144470221729,0.8295707913764655,108.88250000000004,69.88649014012917,68.26614609571789,-1.7266498740554157,55.39989894908808,46.88000000000011,7.810000000000059,8.397967429936791,1.6316292640027776,0.0376224716633878,75.97742149850808,118.05169587878792,2289.4627222137124,1229.2779150594365,479.8386852394973,580.3461219147782,0.8268146664895951,45.25990959325945,54.740090406740514,0.3866171003717472,0.6385545459303692,-6.1104686224310925,-2051023813.688773,10.707813615309686,2.272952853598015,2.801577615850361,0.7098331238327005,0.38128686082269,4815184.675004981,0.0066170388751033,0.0330851943755169,232972.93856858052,0.0002640775037358,14,2
406,742.59664525525,474.58,1290.9,81.82809129277085,46.47920055775041,126.42757806902948,9.319724046029677,0,624,84.39678484597296,91.28154922086516,67.42512580834861,188,46.41975308641975,308,76.04938271604938,578.125,875.0,296.875,18.454545454545453,226773350.6864034,226773350.68640336,742.59664525525,738.23,84.29278383931185,0.8134680937263414,105.45999999999992,64.37173439777033,61.62303703703704,0.0241234567901232,52.73000000000002,44.90999999999997,7.809999999999945,3.985798051681489,0.7027813266922072,-0.0871639436962774,64.62563424166552,100.34521405397156,2150.3870089618576,1094.4603218158209,411.6769813165349,644.2497058295017,0.6390022030145617,38.98726931783656,61.01273068216342,0.4187785625259659,0.5484703580794821,-8.486331743885112,-1829306478.767899,22.965777824324523,0.9850249584026622,3.997158295069652,0.4031052321380729,0.2215759106818056,4542624.210174791,0.0033277870216306,0.0,225419.15237794552,0.0001713485353869,14,2
403,745.9191777019948,421.85,1290.9,81.39997552480735,46.47920055775041,142.23065070522696,9.267353873775578,0,624,80.62831055016406,88.0220396655176,66.24883399832257,177,44.02985074626866,299,74.37810945273633,625.0,898.4375,273.4375,16.791666666666668,226840725.75823277,226840725.7582328,745.9191777019948,740.18,80.52821329177017,0.807266366383922,95.69000000000004,59.79947138058533,58.05074626865672,0.0534328358208958,48.819999999999936,42.964999999999975,9.759999999999993,5.60781131488557,0.5645341355637395,-0.2876313200052756,62.31852854436386,95.4895278258967,1477.7570568071685,664.3272509145897,378.2333988015481,435.19640709103066,0.8691096540289966,46.49859103533975,53.50140896466027,0.566902876198416,0.5550080441223249,-8.944969030812658,-1786091664.8635364,23.461152136764145,0.9649415692821368,4.045357364113955,0.4034741212594103,0.2148023801795422,4568253.238039281,0.003338898163606,0.0,225428.6396775339,0.0001513231426753,14,2
412,733.9716253735634,421.85,1290.9,82.57726341826262,46.47920055775041,142.23065070522696,8.691163054114883,0,624,73.20912480331016,85.48240496328714,66.31226586398677,160,38.929440389294406,293,71.28953771289538,625.0,859.375,234.375,14.20689655172414,224153096.62093213,224153096.62093213,733.9716253735634,732.37,73.12022480111443,0.7954017883164859,80.5575,52.8896039706088,54.04279805352798,-0.0047445255474449,41.00999999999999,37.110000000000014,7.810000000000059,8.941991885305434,0.7376136062340665,-0.1496275671566728,60.5188568800176,84.00368962652314,1932.735144593479,747.2936614094157,405.3339873927369,780.1074957913263,0.5195873512041744,34.19266097420692,65.80733902579308,0.626605884790717,0.602740315307877,-9.240350245642878,-1742149335.2739344,22.20618790652785,1.0024896265560166,3.9352984701416047,0.5273354293622794,0.2232101237725463,4399758.116089914,0.0033195020746887,0.0,222696.2839367936,0.0001679630127429,14,2
418,726.0700223305862,421.85,1290.9,83.3835768763006,46.47920055775041,142.23065070522696,8.294953317786126,0,624,68.42373567907481,81.707357503117,65.03130340773063,145,34.77218225419664,281,67.38609112709833,625.0,843.75,218.75,13.933333333333334,222312582.89372844,222312582.89372844,726.0700223305862,722.61,68.34184009535403,0.7917798565486956,77.33030995633317,49.01280741699981,49.56978417266187,-0.3091127098321342,39.059999999999945,33.200000000000045,5.8599999999999,12.20712060310644,0.8994080630431894,0.0178341574725263,57.844813028101264,77.57314492982607,1668.879937612106,462.7144901398345,453.80461198411206,752.3608354881594,0.6031741560413189,37.623744979193205,62.37625502080678,0.6372265786215435,0.6533009013636314,-9.091094360257964,-1736074975.4852748,20.789464245642872,1.0743801652892562,3.850659774584511,0.6805138490694592,0.2380312511278215,4294869.760774018,0.0066115702479338,0.0,221037.34359226783,0.0001702930481026,14,2
419,725.4075533892686,396.46,1238.2,83.63042837864025,48.45743821676627,151.339353276497,9.31216852021981,0,841,75.25152969783882,88.4156264454309,72.68903831418172,139,33.25358851674641,283,67.70334928229666,617.1875,843.75,226.5625,14.448275862068966,222851601.0151912,222851601.01519123,725.4075533892686,718.7,75.16167709302026,0.8024622058014232,82.01999999999998,53.35790995485045,50.46055023923446,0.299019138755981,41.00999999999999,33.200000000000045,3.983948611838514,8.054792458610748,0.6997391906949882,0.1908397723689079,62.59384934165387,86.06738911064848,1398.7451075225183,220.34696675424755,358.3854316963267,820.0127090719442,0.4370486307485797,30.41293254779518,69.58706745220482,0.580618556701031,0.6630768229059343,-8.038173742561414,-1836650372.2503283,20.1450111286669,1.1230388109000826,3.738147613011676,0.7583867900627781,0.2443057432441057,4304501.280789763,0.0033030553261767,0.0,221258.3903819076,0.000225111402385,14,2
416,726.1594640070915,419.93,1177.7,83.62332534287481,50.94676063513628,142.88095634986783,9.323712822897424,0,570,80.06160142345503,62.814955888183526,51.67622634819014,75,18.072289156626507,241,58.07228915662651,601.5625,875.0,273.4375,17.333333333333332,222020039.85083225,222020039.85083225,726.1594640070915,716.81,79.96531563825923,0.7933950042744458,97.65999999999995,61.5201537221012,35.80113253012048,-0.0517831325301203,48.82000000000005,25.389999999999876,-7.82000000000005,2.7858044987620305,0.6297872503685537,-0.0467982234422043,44.47047737950246,104.12538925072744,3220.131479789305,327.4260411058026,345.10973583255634,2547.595702850946,0.135464875940226,11.930344901955142,88.06965509804485,0.2422231439236831,0.5904612195787057,-8.913419699866571,-1808498032.439708,32.08632369815518,0.8305647840531561,4.777075050489689,0.7489265331553,0.1700651517444574,4352166.202840619,0.0066445182724252,0.0,220926.7560634674,6.87023601586028e-05,14,3
419,719.6632002816733,433.6,896.5,84.06749482466566,66.92693809258226,138.37638376383765,7.817189819894912,0,191,65.08107054256578,39.37075643551626,26.074746205044185,68,16.267942583732058,230,55.02392344497608,601.5625,867.1875,265.625,16.115384615384617,218776894.1713775,218776894.17137748,719.6632002816733,714.85,65.0033617739054,0.7830668648841596,94.07562600020526,52.84927211946508,29.526100478468905,-0.0981100478468902,44.92999999999995,23.43999999999994,-6.849020339056153,0.3039575750305521,0.1030737961405856,0.0336003965540899,27.872602815492804,87.71664322249586,2220.5467833762004,261.94440201959435,444.4966651195377,1514.1057162370682,0.293570429298836,22.69458412542425,77.30541587457573,0.2260074781886165,0.5598428224454042,-12.6439327283818,-1592292956.9883687,54.99643830393007,0.4958402662229617,6.433627468383871,0.879189947526276,0.1080381324540608,4236577.081225712,0.0066555740432612,0.0,217983.75230326265,1.3288099641940356e-05,14,3
418,716.0113434161881,593.76,896.5,84.35170348306123,66.92693809258226,101.05092966855295,6.761301337097032,0,123,59.10171560872818,35.34615069716627,23.001619637419758,58,13.908872901678656,210,50.35971223021583,625.0,820.3125,195.3125,11.942857142857145,215753584.2830258,215753584.2830258,716.0113434161881,705.1235194457834,59.03097744381157,0.7770620280476632,85.94000000000005,48.71974897113967,26.86158273381296,0.3419184652278175,41.05351944578331,21.479999999999905,-5.337736107818955,-0.2654253181544388,0.5363191172225836,-0.0535097534179427,25.0223542649377,79.7490273472343,2301.2377274551163,495.1046566355457,569.2267614469151,1236.9063093726556,0.4602020032831915,31.5163246077221,68.48367539227792,0.2244556113902847,0.5214556243429155,-13.854792370948305,-1480990286.4518871,35.513310821906984,0.6437552388935457,5.406433808874317,0.8669238384866963,0.139676988165268,4179020.047304226,0.0067057837384744,0.0,214904.0939277959,1.1361763644722837e-05,14,3
419,714.4159742110139,593.76,896.5,84.47051152255334,66.92693809258226,101.05092966855295,6.333739739864363,0,111,55.17829228711614,33.117221725787026,20.998635623911756,57,13.636363636363637,207,49.52153110047847,617.1875,812.5,195.3125,12.696969696969695,215126148.3499024,215126148.3499024,714.4159742110139,705.09,55.11240773551507,0.7638965006583143,82.04000000000008,45.34756304071668,25.629330143540678,0.079425837320574,39.059999999999945,19.54000000000002,-1.949999999999932,-0.079030520205523,0.5693757319907521,0.0134739254498571,23.44540624584316,74.42849457977918,2067.908361278853,626.294806120412,433.2599065172489,1008.3536486411924,0.4296705893820968,30.053817471883526,69.94618252811648,0.2109669317706153,0.5258743913287159,-15.449441602720766,-1459970416.0487754,66.08431840340252,0.4157585917854149,7.096527461436613,0.8663071861884011,0.0914956602591157,4151484.348688477,0.0067057837384744,0.0,214367.2350623322,6.863862969690987e-06,14,3
418,716.0410363502748,611.34,896.5,84.20474908404664,66.92693809258226,98.14505839630974,5.776318284425818,0,111,51.21292542362411,32.525090642415954,20.53145421222486,50,11.990407673860911,204,48.92086330935252,617.1875,812.5,195.3125,12.294117647058824,215408464.5539024,215408464.5539024,716.0410363502748,708.99,51.1516292611157,0.7508302127602766,74.22000000000003,41.64985166324007,25.2458273381295,-0.0749400479616307,37.110000000000014,19.529999999999973,-1.7597486731541494,0.1697062230023025,0.75605978476639,-0.0024758143536025,23.02627712215715,68.66817328854025,1604.0868783425854,515.6360988392419,251.40486344060528,837.0459160627381,0.3003477570539416,23.09749491431487,76.90250508568512,0.2309623430962342,0.5434570984680199,-15.86940661411546,-1450653573.7841349,64.96412937450715,0.4254606365159129,7.005845069198696,0.8410463776816784,0.0927971065229458,4162714.378660022,0.0067001675041876,0.0,214844.66132467543,7.590935558696257e-06,14,3
418,716.9195344207642,611.34,1246.1,84.07484690136195,48.1502287135864,98.14505839630974,5.451405242338649,0,595,51.6626841801905,49.09882281989439,41.72617627831523,41,9.832134292565948,189,45.32374100719424,617.1875,828.125,210.9375,13.483870967741936,215953959.40725243,215953959.40725243,716.9195344207642,712.9,51.60084970658965,0.7370037357287443,69.8225000000001,38.18067817329711,25.95757793764988,-0.1405035971223022,33.42009266301318,19.52999999999986,-0.9315420111955746,24.92560537896543,2.801724546404988,0.0629298949996929,34.75967169041366,64.26376192986889,930.7267459803566,319.15481822701145,205.9251228744803,405.6468048788649,0.5076463573674003,33.671447875470925,66.32855212452908,0.31438127090301,0.6207322226412973,-12.598132785387548,-1532945261.211246,37.57402486562319,0.6962343096234309,5.209649070230572,0.7370787219101474,0.1451511494211492,4165397.4472812857,0.003347280334728,0.0,215109.2518544965,3.559905738925356e-05,14,3
416,722.7999442307693,585.94,2166.0,83.6647552063015,27.700831024930743,102.39956309519744,6.160318927321383,0,1488,87.82464157295014,88.09479741415164,83.08059233187609,41,9.879518072289155,193,46.50602409638554,601.5625,812.5,210.9375,13.419354838709678,220535904.48405945,220535904.4840594,722.7999442307693,714.85,87.71901959658389,0.7283831307976061,66.89749999999992,41.69572214312131,29.57939759036144,-3.327301204819277,33.204999999999984,19.529999999999973,0.0,176.36826974758108,11.201917331625886,0.0113837256959211,62.32311486444779,107.43446694812224,902.919894813703,133.57429021001076,265.3084880937499,504.0371165099424,0.5263669666448394,34.484955331670015,65.51504466832999,0.4900000000000001,0.7012632700376811,-4.808001286160773,-1939973312.363204,6.007985662235972,2.97581317764804,1.979292892656212,0.908791135359164,0.568340584731452,4297711.390107643,0.0100083402835696,0.110091743119266,218076.74215362908,0.0004854809647062,14,3
487,617.3615400410677,527.35,1298.8,98.15405067344344,46.19648906683092,113.77642931639328,9.116962710307565,0,697,67.44381241001324,47.38044938744649,43.75657395737575,27,5.555555555555555,123,25.30864197530864,523.4375,671.875,148.4375,11.068181818181818,187823529.6029,187823529.6029,617.3615400410677,599.61,67.37453266660228,0.7310284497076155,74.22000000000003,49.13647019635784,18.281378600823047,-0.0040123456790124,31.25,9.769999999999982,-1.949999999999932,20.61821990755456,2.824351926603281,-0.2177253397066916,33.53755836534916,89.28923699799942,2730.9828542678515,171.16627638785835,709.6096737891651,1850.206904090828,0.3835299026396508,27.721114079855464,72.27888592014455,0.27,0.554568318440359,-8.79033520707348,-1535965984.1250038,34.07096520891825,0.7906588824020017,4.974133852828207,0.5593207304645671,0.165056089521424,3151245.3350624223,0.0033361134278565,0.0,186998.42368834093,5.237917138129299e-05,15,1
495,605.8136767676768,521.49,1298.8,99.82611311527847,46.19648906683092,115.05493873324512,8.21671832701351,0,697,60.16151523020422,45.4528638613496,42.62662616735319,16,3.238866396761133,101,20.445344129554652,523.4375,679.6875,156.25,10.76086956521739,183458041.9345,183458041.9345,605.8136767676768,591.8,60.10071530034141,0.711360962304,56.64999999999998,40.87660524436284,15.893765182186234,0.1027935222672064,25.3900000000001,9.759999999999993,-1.949999999999932,34.94316997068847,3.792342113414976,-0.0776651232186037,32.17252585078787,78.7638521783221,1969.6165477745976,350.4052887598832,397.8677668095294,1221.343492205185,0.3257623832679234,24.57170209226626,75.42829790773374,0.150375939849624,0.5745042874388995,-9.159479926852862,-1466589614.0303826,32.19660165189735,0.8193979933110368,4.843918574844037,0.655350805280241,0.1695693946976108,3018263.292481452,0.0033444816053511,0.0,182737.4132454685,5.400893401954212e-05,15,1
501,599.3926746506986,511.72,808.6,100.80729290641663,74.20232500618353,117.25162198077074,8.098853271974953,0,119,52.70523722394138,19.862867461673304,14.96138326017068,18,3.6,100,20.0,531.25,640.625,109.375,8.491525423728813,181383981.8063,181383981.8063,599.3926746506986,583.99,52.65261091304036,0.7068542512762165,52.73000000000013,39.82738969167454,13.081979999999998,0.3711000000000001,23.44000000000005,7.810000000000059,-1.949999999999932,1.8529929895634332,1.3261727814240991,0.0351228313094931,14.056780586461176,73.19898210499898,1886.879437933256,166.75884588620627,358.4831869811634,1361.6374050658862,0.263273604006066,20.840584586836805,79.1594154131632,0.1702127659574468,0.4972291406174107,-12.832506655813104,-1266416800.1182396,25.875406065818048,1.0025062656641603,4.651074569405167,0.7859494577993085,0.1671226056632734,2940514.60358454,0.0033416875522138,0.0,180798.87434917336,1.2727859268050154e-05,15,1
498,602.5876305220884,511.72,808.6,100.37807406761864,74.20232500618353,117.25162198077074,8.664849479581724,0,119,56.60981848497168,22.105317795704604,16.16189409199244,23,4.627766599597585,127,25.553319919517104,523.4375,640.625,117.1875,9.22222222222222,182422424.284,182422424.284,602.5876305220884,584.965,56.552952756420346,0.7196910280982598,63.96249999999998,44.30505153142692,15.0984708249497,0.157183098591549,26.36500000000001,9.769999999999982,-1.9500000000000453,0.941405067002747,1.1500250540020418,0.0439200633455232,15.646173494387368,78.51458687904058,1561.1940513288,104.58453292253448,367.7659170067905,1088.843601399475,0.3377582570482173,25.248078662095924,74.75192133790407,0.1535893155258764,0.5005926458953122,-13.553982513414294,-1294253901.4742198,54.25233528117811,0.3609022556390977,6.742805882900193,0.7109701299754931,0.1000228697420576,2982937.245350521,0.0033416875522138,0.0,181930.33033813423,3.8175139598586295e-06,15,1
496,604.7771774193548,511.72,808.6,100.0347519959481,74.20232500618353,117.25162198077074,8.785204753514762,0,119,57.2384850269341,22.521611726239197,16.47957340656029,21,4.242424242424243,134,27.070707070707076,523.4375,648.4375,125.0,9.72549019607843,183036436.2896,183036436.2896,604.7771774193548,589.85,57.18075582916274,0.7259548554753891,64.46000000000004,45.223417663891766,15.368646464646464,-0.1065454545454545,29.300000000000068,9.769999999999982,-1.9500000000000453,0.6953015291580797,1.0337874615143905,0.0582629471845747,15.941116445058237,79.36226523255377,3104.0378556807927,304.60774025317096,477.2511269678905,2322.178988459731,0.2055186655893586,17.048152920044902,82.95184707995509,0.1502504173622704,0.513807048597827,-13.762039233754676,-1303335854.4160504,72.11545237999339,0.3040935672514619,7.692558700457478,0.7516832588896991,0.0840469704474707,3006384.131848775,0.0033416875522138,0.0,182647.91900118784,3.104995531486939e-06,15,1
489,613.4146216768917,511.72,808.6,98.6653255309072,74.20232500618353,117.25162198077074,8.958983648343057,0,119,58.81975318081563,24.38079266184084,17.16250014718281,26,5.327868852459016,155,31.762295081967213,531.25,710.9375,179.6875,11.372093023255816,185688061.0863,185688061.0863,613.4146216768917,599.61,58.75957950452061,0.7383665732616015,82.03999999999996,47.76755491989413,17.334221311475414,-0.3402049180327871,33.21000000000004,11.720000000000027,-2.930000000000064,0.0975767027005365,0.7834038865520792,0.0328674423807551,17.25583459280836,81.37421520979345,3017.081685268099,269.833635986201,428.6370711438148,2318.6109781380837,0.1848680417652571,15.602416070724155,84.39758392927584,0.1469115191986644,0.5078884540203088,-12.298916082795545,-1328643091.0777345,29.66293409344997,0.8220551378446115,4.985233498372246,0.893519396763589,0.1533273501604654,3092983.0476528117,0.0066833751044277,0.0,185251.26892881555,1.1025493068650191e-05,15,1
482,622.1406224066391,511.72,824.23,97.38402139832483,72.79521492787207,117.25162198077074,9.387356554553085,0,119,63.015313668856415,25.76442523908127,18.153694453002288,30,6.237006237006238,160,33.264033264033266,531.25,734.375,203.125,12.35897435897436,188472433.0644,188472433.0644,622.1406224066391,610.355,62.94991114612916,0.7539945305380624,91.80000000000008,51.75845922074345,18.301205821205823,0.125862785862786,41.995000000000005,11.720000000000027,-1.9600000000000364,-0.0799335132089584,0.702585232585896,0.1079686824626385,18.23694960521267,87.23114800726663,3306.568576984121,239.43171886955267,270.5837914357715,2796.5530666787968,0.0967561798343124,8.822031880315405,91.1779681196846,0.1436925647451963,0.4895640322821513,-13.36315649537584,-1349782915.0275643,65.32793991815011,0.334448160535117,7.295200533661736,0.7931624630203317,0.090107680647171,3191082.016239277,0.0033444816053511,0.0,187909.8195079557,4.8645168307117584e-06,15,1
393,765.3828227712027,591.75,912.04,79.04019743745242,65.78658830753038,101.39416983523448,7.3753839371202465,0,148,67.83108839526966,31.96095102159273,20.964040250717854,34,8.673469387755102,191,48.724489795918366,601.5625,867.1875,265.625,17.08695652173913,232027284.2682649,232027284.2682649,765.3828227712027,777.28,67.74473433302069,0.7904124748575267,97.64999999999986,55.52644101671889,24.148137755102045,0.0747193877551019,44.92000000000007,19.529999999999973,-4.884999999999991,-0.4226008599068245,-0.3715243699686017,-0.0843427291689719,22.628624914269192,93.22048294373448,3744.221414567765,497.5071451604576,1184.9198708834324,2061.7943985238744,0.5747032156706636,36.49597015815444,63.504029841845565,0.2165764264889629,0.5132120831400769,-15.070700854120329,-1610207441.9704466,87.65930639687133,0.3035863219349458,8.20876026798026,0.5725135464545055,0.0743720984093046,4792262.20921948,0.0033361134278565,0.0,231320.34348750976,3.1672816170301792e-06,15,2
396,758.4550741138452,525.35,933.52,79.81865057353785,64.27285971377154,114.20957456933472,7.757543167808698,0,279,70.16614278287737,37.81289033309059,27.12757923263211,41,10.379746835443038,199,50.37974683544304,593.75,859.375,265.625,16.5,229745321.9810649,229745321.9810649,758.4550741138452,764.585,70.07749316720954,0.8005831520411228,105.46000000000004,57.47495340765356,26.37749367088607,0.0247341772151901,49.80499999999995,21.479999999999905,-5.860000000000127,-0.3324884737212743,-0.2896742904016734,0.0544418879434457,26.77165509701714,95.5502677621608,2987.560552763216,239.41234662869115,904.6058530171634,1843.542353117361,0.4906889453814331,32.91692387615292,67.08307612384708,0.1835627868168544,0.5406186560855615,-13.021666673742937,-1656809364.9096866,60.18653052887395,0.4745196324143692,6.61804117570118,0.6945562782074173,0.0953304902773088,4711948.268781253,0.0033416875522138,0.0,228913.94240894463,1.4085875915858486e-05,15,2
402,749.8732537063564,525.35,933.52,80.75429900784981,64.27285971377154,114.20957456933472,7.972740137165015,0,279,70.46915030689894,36.43517274398801,26.26022446300213,39,9.72568578553616,189,47.13216957605985,562.5,867.1875,304.6875,20.1,228039904.80204684,228039904.8020468,749.8732537063564,752.87,70.38144753451358,0.8013854936785582,97.65000000000008,56.86618125611058,25.291147132169577,0.1217705735660849,49.80000000000001,19.529999999999973,-5.860000000000014,-0.1322005053252279,-0.2450563906129819,0.0045579203233483,25.79559799920996,96.2620871050269,3725.7546484683808,410.7096295996771,1196.8799129786514,2118.1651058900525,0.5650550609347909,36.1044844388599,63.8955155611401,0.2226838388034898,0.5351484104957421,-12.716785843747868,-1659029888.0524144,54.60168532463826,0.5224625623960066,6.449780614749102,0.7041073363456374,0.105139714643729,4613584.950216332,0.0033277870216306,0.0,227445.754851014,1.4836714188073002e-05,15,2
403,746.2430511549298,525.35,1277.1999999999998,81.1592500608074,46.97776385844035,114.20957456933472,7.930475658430539,0,636,72.82419114223254,56.03641736051195,49.17666694329972,36,8.955223880597014,185,46.01990049751244,632.8125,875.0,242.1875,14.925925925925926,226554064.484838,226554064.484838,746.2430511549298,746.0400000000001,72.73378242811772,0.7879034198125059,93.745,56.045043837696426,26.97686567164179,-0.3157711442786068,46.88000000000011,19.52999999999986,-3.909999999999968,6.29990772610434,0.7425687923657146,-0.0356073634012188,39.6724761903419,95.0411503716553,3506.2571862281657,446.27334599972943,1204.56586650964,1855.4179737187965,0.6492153701062517,39.36510548433863,60.63489451566137,0.2165764264889629,0.5771176094943501,-10.28448369692451,-1728802717.247661,31.59402590511136,0.8140116763969975,4.8996020135753975,0.640050971288106,0.1669505356621453,4567392.532818424,0.0033361134278565,0.0,225685.0481736343,4.651255096336642e-05,15,2
398,756.0133252883971,525.35,1277.1999999999998,80.0988405987484,46.97776385844035,114.20957456933472,7.798960445589926,0,636,72.89330163818472,57.07021743081991,49.83076273090345,37,9.319899244332492,187,47.10327455919396,640.625,898.4375,257.8125,15.92,229588779.97863573,229588779.97863573,756.0133252883971,755.8000000000001,72.8016695445916,0.7926020331853894,95.20999999999992,56.168087838658415,27.93133501259446,0.2262972292191433,48.819999999999936,19.529999999999973,-3.899999999999977,5.912580212151516,0.6404813645546639,-0.0288063910430797,40.40534092084838,94.8381530424374,4032.009773926276,366.3239324574015,1019.734711700918,2645.951129767956,0.3853943862486781,27.818388039829976,72.18161196017002,0.2865472719700125,0.5794164118255031,-10.403279437858156,-1745926809.0491128,32.764469256758254,0.7906588824020017,4.965437774327665,0.6742441123270457,0.1637895084979829,4684049.198029314,0.0033361134278565,0.0,228578.2466694628,4.491528028368425e-05,15,2
401,750.26003357801,525.35,1277.1999999999998,80.70446806924944,46.97776385844035,114.20957456933472,7.768508477726697,0,636,72.34682909707327,57.64818821497386,49.62597820340713,41,10.25,206,51.5,625.0,906.25,281.25,18.227272727272727,227812562.78393573,227812562.78393573,750.26003357801,749.94,72.25656477109764,0.7984230597373191,91.79000000000008,55.15235833468946,29.440325,-0.2441249999999999,46.870000000000005,21.480000000000015,-5.854999999999961,6.351694209737223,0.7779215727213435,0.0164219399877163,40.814108864861865,93.82076464391804,3198.011135815978,244.85504090876208,949.4758558870398,2003.680239020176,0.4738659579491311,32.15122483787539,67.84877516212461,0.4396336386344713,0.5867649460725033,-10.30283997411299,-1742965550.90863,33.01603436598222,0.78,4.985732909701821,0.7645051997115969,0.1634607423639633,4614754.883407665,0.0033333333333333,0.0,226982.1212033334,4.455576023073318e-05,15,2
472,637.37375,529.2900000000001,867.18,95.00818875448871,69.18978758735211,113.35940599671255,8.836118857481031,0,103,63.48389755650615,23.643581507394668,16.597035578014076,21,4.45859872611465,139,29.51167728237792,554.6875,679.6875,125.0,10.04255319148936,193646006.9455,193646006.9455,637.37375,625.0,63.416612007598175,0.7436502337176917,82.03999999999996,50.212542372881344,16.856518046709127,-0.4851804670912951,35.15999999999997,11.72000000000014,-1.949999999999932,0.6225545210371508,0.9482867196272692,-0.1594989437163798,16.732788882516644,88.20671331674853,3201.5350882535827,93.14180710989906,738.6390834669444,2369.7541976767398,0.311694387625135,23.762729380085844,76.23727061991417,0.1232306411323896,0.4726404022996246,-12.01917415580567,-1378100288.5587902,22.901006952602685,1.2066666666666668,4.363280294232149,0.8334562066569955,0.1822929745054936,3345657.8718431024,0.01,0.0,193056.9521788701,1.7784776653520587e-05,15,3
